  1.54056
   4.00812      -0.012      0.00203
   4.01811      -0.006      0.00203
   4.02811      -0.005      0.00203
   4.03810      -0.004      0.00202
   4.04809      -0.008      0.00202
   4.05809      -0.006      0.00201
   4.06808      -0.008      0.00201
   4.07807      -0.007      0.00200
   4.08806      -0.006      0.00201
   4.09806      -0.001      0.00200
   4.10805       0.002      0.00200
   4.11804       0.008      0.00200
   4.12804       0.018      0.00201
   4.13803       0.024      0.00200
   4.14802       0.031      0.00201
   4.15801       0.037      0.00200
   4.16801       0.043      0.00200
   4.17800       0.044      0.00199
   4.18799       0.046      0.00200
   4.19799       0.043      0.00199
   4.20798       0.039      0.00199
   4.21797       0.036      0.00198
   4.22796       0.033      0.00198
   4.23796       0.030      0.00198
   4.24795       0.037      0.00198
   4.25794       0.046      0.00197
   4.26793       0.047      0.00198
   4.27793       0.050      0.00197
   4.28792       0.058      0.00197
   4.29791       0.057      0.00197
   4.30791       0.062      0.00197
   4.31790       0.073      0.00197
   4.32789       0.080      0.00197
   4.33788       0.085      0.00197
   4.34788       0.084      0.00197
   4.35787       0.077      0.00196
   4.36786       0.068      0.00196
   4.37786       0.063      0.00195
   4.38785       0.060      0.00195
   4.39784       0.061      0.00195
   4.40783       0.059      0.00195
   4.41783       0.058      0.00194
   4.42782       0.058      0.00194
   4.43781       0.058      0.00194
   4.44781       0.052      0.00193
   4.45780       0.056      0.00193
   4.46779       0.059      0.00193
   4.47778       0.057      0.00193
   4.48778       0.059      0.00193
   4.49777       0.064      0.00193
   4.50776       0.059      0.00192
   4.51776       0.062      0.00192
   4.52775       0.063      0.00192
   4.53774       0.064      0.00192
   4.54773       0.062      0.00192
   4.55773       0.065      0.00192
   4.56772       0.062      0.00191
   4.57771       0.060      0.00191
   4.58771       0.058      0.00191
   4.59770       0.058      0.00190
   4.60769       0.057      0.00190
   4.61768       0.060      0.00190
   4.62768       0.063      0.00190
   4.63767       0.065      0.00190
   4.64766       0.060      0.00189
   4.65765       0.061      0.00189
   4.66765       0.063      0.00189
   4.67764       0.065      0.00189
   4.68763       0.070      0.00189
   4.69763       0.070      0.00189
   4.70762       0.074      0.00188
   4.71761       0.073      0.00188
   4.72760       0.068      0.00188
   4.73760       0.067      0.00188
   4.74759       0.072      0.00188
   4.75758       0.070      0.00187
   4.76758       0.067      0.00187
   4.77757       0.065      0.00187
   4.78756       0.060      0.00187
   4.79755       0.052      0.00186
   4.80755       0.052      0.00186
   4.81754       0.043      0.00185
   4.82753       0.041      0.00185
   4.83753       0.047      0.00185
   4.84752       0.050      0.00185
   4.85751       0.054      0.00185
   4.86750       0.063      0.00185
   4.87750       0.068      0.00185
   4.88749       0.071      0.00185
   4.89748       0.075      0.00185
   4.90748       0.075      0.00185
   4.91747       0.071      0.00185
   4.92746       0.070      0.00184
   4.93745       0.068      0.00184
   4.94745       0.068      0.00184
   4.95744       0.062      0.00184
   4.96743       0.065      0.00184
   4.97743       0.063      0.00183
   4.98742       0.060      0.00183
   4.99741       0.057      0.00183
   5.00740       0.057      0.00183
   5.01740       0.044      0.00182
   5.02739       0.048      0.00182
   5.03738       0.057      0.00182
   5.04737       0.050      0.00182
   5.05737       0.046      0.00182
   5.06736       0.053      0.00182
   5.07735       0.048      0.00181
   5.08735       0.045      0.00181
   5.09734       0.052      0.00181
   5.10733       0.051      0.00181
   5.11732       0.045      0.00181
   5.12732       0.044      0.00180
   5.13731       0.043      0.00180
   5.14730       0.034      0.00180
   5.15730       0.033      0.00179
   5.16729       0.034      0.00179
   5.17728       0.037      0.00179
   5.18727       0.027      0.00179
   5.19727       0.028      0.00179
   5.20726       0.025      0.00179
   5.21725       0.025      0.00178
   5.22725       0.023      0.00178
   5.23724       0.023      0.00178
   5.24723       0.027      0.00178
   5.25722       0.028      0.00178
   5.26722       0.026      0.00178
   5.27721       0.033      0.00177
   5.28720       0.036      0.00178
   5.29720       0.035      0.00177
   5.30719       0.038      0.00177
   5.31718       0.041      0.00177
   5.32717       0.039      0.00177
   5.33717       0.040      0.00177
   5.34716       0.044      0.00177
   5.35715       0.039      0.00177
   5.36715       0.040      0.00177
   5.37714       0.041      0.00176
   5.38713       0.038      0.00176
   5.39712       0.033      0.00176
   5.40712       0.033      0.00176
   5.41711       0.025      0.00175
   5.42710       0.017      0.00175
   5.43709       0.011      0.00175
   5.44709       0.007      0.00174
   5.45708      -0.000      0.00174
   5.46707       0.007      0.00174
   5.47707       0.013      0.00174
   5.48706       0.014      0.00174
   5.49705       0.026      0.00174
   5.50704       0.034      0.00174
   5.51704       0.034      0.00174
   5.52703       0.035      0.00174
   5.53702       0.038      0.00174
   5.54702       0.037      0.00174
   5.55701       0.031      0.00173
   5.56700       0.031      0.00173
   5.57699       0.025      0.00173
   5.58699       0.020      0.00172
   5.59698       0.017      0.00172
   5.60697       0.020      0.00172
   5.61697       0.024      0.00172
   5.62696       0.022      0.00172
   5.63695       0.026      0.00172
   5.64694       0.025      0.00171
   5.65694       0.023      0.00172
   5.66693       0.024      0.00171
   5.67692       0.027      0.00171
   5.68692       0.026      0.00171
   5.69691       0.024      0.00171
   5.70690       0.029      0.00171
   5.71689       0.027      0.00171
   5.72689       0.030      0.00170
   5.73688       0.036      0.00171
   5.74687       0.038      0.00170
   5.75687       0.043      0.00171
   5.76686       0.045      0.00170
   5.77685       0.042      0.00170
   5.78684       0.043      0.00170
   5.79684       0.045      0.00170
   5.80683       0.048      0.00170
   5.81682       0.044      0.00170
   5.82681       0.043      0.00170
   5.83681       0.037      0.00169
   5.84680       0.034      0.00169
   5.85679       0.029      0.00169
   5.86679       0.025      0.00169
   5.87678       0.028      0.00169
   5.88677       0.032      0.00169
   5.89676       0.029      0.00168
   5.90676       0.031      0.00168
   5.91675       0.030      0.00168
   5.92674       0.027      0.00168
   5.93674       0.029      0.00168
   5.94673       0.030      0.00168
   5.95672       0.028      0.00167
   5.96671       0.027      0.00167
   5.97671       0.029      0.00167
   5.98670       0.032      0.00167
   5.99669       0.037      0.00167
   6.00669       0.047      0.00167
   6.01668       0.057      0.00167
   6.02667       0.061      0.00167
   6.03666       0.064      0.00167
   6.04666       0.066      0.00167
   6.05665       0.069      0.00167
   6.06664       0.070      0.00166
   6.07664       0.075      0.00167
   6.08663       0.081      0.00166
   6.09662       0.091      0.00166
   6.10661       0.100      0.00166
   6.11661       0.115      0.00166
   6.12660       0.128      0.00166
   6.13659       0.145      0.00167
   6.14659       0.158      0.00166
   6.15658       0.177      0.00166
   6.16657       0.191      0.00167
   6.17656       0.213      0.00167
   6.18656       0.244      0.00167
   6.19655       0.275      0.00167
   6.20654       0.314      0.00167
   6.21654       0.372      0.00168
   6.22653       0.444      0.00169
   6.23652       0.544      0.00170
   6.24651       0.684      0.00171
   6.25651       0.856      0.00173
   6.26650       1.083      0.00176
   6.27649       1.374      0.00179
   6.28648       1.740      0.00183
   6.29648       2.189      0.00187
   6.30647       2.751      0.00193
   6.31646       3.415      0.00200
   6.32646       4.215      0.00207
   6.33645       5.141      0.00216
   6.34644       6.188      0.00226
   6.35643       7.365      0.00235
   6.36643       8.669      0.00246
   6.37642      10.055      0.00257
   6.38641      11.542      0.00268
   6.39641      13.071      0.00279
   6.40640      14.601      0.00289
   6.41639      16.109      0.00299
   6.42638      17.542      0.00309
   6.43638      18.851      0.00316
   6.44637      19.983      0.00323
   6.45636      20.922      0.00328
   6.46636      21.621      0.00332
   6.47635      22.061      0.00335
   6.48634      22.236      0.00336
   6.49633      22.104      0.00334
   6.50633      21.669      0.00332
   6.51632      20.995      0.00328
   6.52631      20.095      0.00322
   6.53631      18.934      0.00315
   6.54630      17.626      0.00306
   6.55629      16.207      0.00297
   6.56628      14.676      0.00287
   6.57628      13.108      0.00275
   6.58627      11.572      0.00264
   6.59626      10.061      0.00253
   6.60626       8.642      0.00241
   6.61625       7.319      0.00231
   6.62624       6.133      0.00220
   6.63623       5.054      0.00211
   6.64623       4.112      0.00202
   6.65622       3.308      0.00194
   6.66621       2.636      0.00187
   6.67620       2.065      0.00181
   6.68620       1.608      0.00176
   6.69619       1.254      0.00172
   6.70618       0.962      0.00168
   6.71618       0.745      0.00166
   6.72617       0.584      0.00164
   6.73616       0.458      0.00162
   6.74615       0.363      0.00161
   6.75615       0.297      0.00160
   6.76614       0.244      0.00159
   6.77613       0.205      0.00159
   6.78613       0.177      0.00159
   6.79612       0.152      0.00158
   6.80611       0.133      0.00158
   6.81610       0.119      0.00157
   6.82610       0.109      0.00157
   6.83609       0.099      0.00157
   6.84608       0.090      0.00157
   6.85608       0.081      0.00157
   6.86607       0.074      0.00156
   6.87606       0.066      0.00156
   6.88605       0.055      0.00156
   6.89605       0.048      0.00156
   6.90604       0.037      0.00155
   6.91603       0.040      0.00155
   6.92603       0.038      0.00155
   6.93602       0.037      0.00155
   6.94601       0.041      0.00155
   6.95600       0.042      0.00155
   6.96600       0.036      0.00155
   6.97599       0.033      0.00155
   6.98598       0.030      0.00154
   6.99598       0.023      0.00154
   7.00597       0.023      0.00154
   7.01596       0.024      0.00154
   7.02595       0.024      0.00154
   7.03595       0.021      0.00154
   7.04594       0.023      0.00154
   7.05593       0.020      0.00153
   7.06592       0.019      0.00154
   7.07592       0.022      0.00153
   7.08591       0.024      0.00153
   7.09590       0.027      0.00153
   7.10590       0.030      0.00153
   7.11589       0.030      0.00153
   7.12588       0.030      0.00153
   7.13587       0.033      0.00153
   7.14587       0.031      0.00153
   7.15586       0.029      0.00153
   7.16585       0.025      0.00152
   7.17585       0.022      0.00152
   7.18584       0.014      0.00152
   7.19583       0.012      0.00152
   7.20582       0.011      0.00152
   7.21582       0.009      0.00152
   7.22581       0.012      0.00151
   7.23580       0.012      0.00151
   7.24580       0.011      0.00151
   7.25579       0.011      0.00151
   7.26578       0.016      0.00151
   7.27577       0.016      0.00151
   7.28577       0.014      0.00151
   7.29576       0.013      0.00151
   7.30575       0.012      0.00151
   7.31575       0.009      0.00150
   7.32574       0.009      0.00150
   7.33573       0.006      0.00150
   7.34572       0.005      0.00150
   7.35572       0.003      0.00150
   7.36571       0.000      0.00150
   7.37570      -0.000      0.00150
   7.38570      -0.002      0.00150
   7.39569      -0.001      0.00149
   7.40568      -0.002      0.00149
   7.41567      -0.001      0.00149
   7.42567       0.003      0.00149
   7.43566       0.002      0.00149
   7.44565      -0.000      0.00149
   7.45564       0.001      0.00149
   7.46564      -0.005      0.00149
   7.47563      -0.006      0.00149
   7.48562       0.000      0.00148
   7.49562       0.002      0.00149
   7.50561       0.009      0.00148
   7.51560       0.015      0.00149
   7.52559       0.022      0.00149
   7.53559       0.023      0.00148
   7.54558       0.028      0.00148
   7.55557       0.029      0.00148
   7.56557       0.030      0.00148
   7.57556       0.029      0.00148
   7.58555       0.027      0.00148
   7.59554       0.028      0.00148
   7.60554       0.024      0.00148
   7.61553       0.021      0.00147
   7.62552       0.020      0.00147
   7.63552       0.021      0.00147
   7.64551       0.021      0.00147
   7.65550       0.023      0.00147
   7.66549       0.023      0.00147
   7.67549       0.017      0.00147
   7.68548       0.015      0.00147
   7.69547       0.008      0.00147
   7.70547       0.004      0.00146
   7.71546      -0.000      0.00146
   7.72545      -0.001      0.00146
   7.73544       0.003      0.00146
   7.74544       0.002      0.00146
   7.75543       0.000      0.00146
   7.76542       0.001      0.00146
   7.77542       0.001      0.00146
   7.78541      -0.003      0.00145
   7.79540       0.002      0.00145
   7.80539       0.003      0.00145
   7.81539      -0.001      0.00145
   7.82538       0.001      0.00145
   7.83537      -0.001      0.00145
   7.84536      -0.000      0.00145
   7.85536      -0.004      0.00145
   7.86535      -0.003      0.00145
   7.87534      -0.001      0.00144
   7.88534      -0.001      0.00144
   7.89533       0.002      0.00144
   7.90532       0.005      0.00144
   7.91531       0.004      0.00144
   7.92531       0.004      0.00144
   7.93530       0.007      0.00144
   7.94529       0.005      0.00144
   7.95529       0.004      0.00144
   7.96528       0.006      0.00144
   7.97527       0.004      0.00144
   7.98526       0.002      0.00144
   7.99526       0.001      0.00144
   8.00525      -0.001      0.00143
   8.01524      -0.000      0.00143
   8.02524      -0.001      0.00143
   8.03523      -0.001      0.00143
   8.04522       0.004      0.00143
   8.05521       0.011      0.00143
   8.06521       0.015      0.00143
   8.07520       0.020      0.00143
   8.08519       0.022      0.00143
   8.09519       0.023      0.00143
   8.10518       0.022      0.00143
   8.11517       0.017      0.00143
   8.12516       0.016      0.00143
   8.13516       0.013      0.00143
   8.14515       0.006      0.00142
   8.15514       0.006      0.00142
   8.16514      -0.000      0.00142
   8.17513      -0.007      0.00142
   8.18512      -0.003      0.00142
   8.19511       0.008      0.00142
   8.20511       0.008      0.00142
   8.21510       0.015      0.00142
   8.22509       0.019      0.00142
   8.23508       0.018      0.00142
   8.24508       0.020      0.00142
   8.25507       0.018      0.00142
   8.26506       0.019      0.00142
   8.27506       0.019      0.00142
   8.28505       0.014      0.00141
   8.29504       0.013      0.00141
   8.30503       0.008      0.00141
   8.31503       0.003      0.00141
   8.32502       0.004      0.00141
   8.33501       0.003      0.00141
   8.34501       0.002      0.00141
   8.35500       0.004      0.00141
   8.36499       0.004      0.00141
   8.37498       0.002      0.00140
   8.38498       0.006      0.00140
   8.39497       0.003      0.00140
   8.40496      -0.001      0.00140
   8.41496       0.000      0.00140
   8.42495      -0.004      0.00140
   8.43494      -0.005      0.00140
   8.44493      -0.003      0.00140
   8.45493      -0.003      0.00140
   8.46492      -0.002      0.00139
   8.47491      -0.003      0.00139
   8.48491      -0.003      0.00139
   8.49490       0.004      0.00139
   8.50489       0.005      0.00139
   8.51488       0.008      0.00139
   8.52488       0.016      0.00139
   8.53487       0.017      0.00139
   8.54486       0.018      0.00139
   8.55486       0.022      0.00139
   8.56485       0.025      0.00139
   8.57484       0.020      0.00139
   8.58483       0.019      0.00139
   8.59483       0.019      0.00139
   8.60482       0.013      0.00139
   8.61481       0.009      0.00139
   8.62481       0.009      0.00139
   8.63480       0.011      0.00139
   8.64479       0.004      0.00138
   8.65478       0.007      0.00138
   8.66478       0.016      0.00138
   8.67477       0.008      0.00138
   8.68476       0.006      0.00138
   8.69475       0.009      0.00138
   8.70475       0.004      0.00138
   8.71474       0.001      0.00138
   8.72473       0.004      0.00138
   8.73473       0.004      0.00138
   8.74472       0.007      0.00138
   8.75471       0.008      0.00137
   8.76470       0.004      0.00137
   8.77470       0.002      0.00137
   8.78469      -0.000      0.00137
   8.79468      -0.003      0.00137
   8.80468       0.002      0.00137
   8.81467       0.001      0.00137
   8.82466      -0.002      0.00137
   8.83465       0.003      0.00137
   8.84465       0.000      0.00137
   8.85464      -0.004      0.00137
   8.86463      -0.000      0.00136
   8.87463       0.000      0.00137
   8.88462       0.004      0.00136
   8.89461       0.007      0.00136
   8.90460       0.012      0.00136
   8.91460       0.018      0.00137
   8.92459       0.020      0.00136
   8.93458       0.021      0.00136
   8.94458       0.027      0.00136
   8.95457       0.026      0.00136
   8.96456       0.028      0.00136
   8.97455       0.030      0.00136
   8.98455       0.027      0.00136
   8.99454       0.023      0.00136
   9.00453       0.018      0.00136
   9.01453       0.010      0.00136
   9.02452       0.009      0.00136
   9.03451       0.006      0.00136
   9.04450       0.002      0.00136
   9.05450       0.006      0.00135
   9.06449       0.004      0.00135
   9.07448       0.003      0.00135
   9.08447       0.011      0.00135
   9.09447       0.007      0.00135
   9.10446       0.005      0.00135
   9.11445       0.007      0.00135
   9.12445       0.003      0.00135
   9.13444      -0.003      0.00135
   9.14443      -0.005      0.00135
   9.15442      -0.005      0.00135
   9.16442      -0.005      0.00135
   9.17441      -0.002      0.00134
   9.18440       0.001      0.00135
   9.19440       0.005      0.00134
   9.20439       0.004      0.00134
   9.21438       0.003      0.00134
   9.22437       0.005      0.00134
   9.23437       0.002      0.00134
   9.24436       0.003      0.00134
   9.25435       0.001      0.00134
   9.26435      -0.004      0.00134
   9.27434      -0.003      0.00134
   9.28433      -0.005      0.00134
   9.29432      -0.003      0.00134
   9.30432       0.001      0.00134
   9.31431       0.002      0.00134
   9.32430       0.004      0.00134
   9.33430       0.009      0.00134
   9.34429       0.006      0.00134
   9.35428       0.008      0.00134
   9.36427       0.011      0.00133
   9.37427       0.011      0.00133
   9.38426       0.007      0.00133
   9.39425       0.007      0.00133
   9.40425      -0.001      0.00133
   9.41424      -0.002      0.00133
   9.42423      -0.005      0.00133
   9.43422      -0.008      0.00133
   9.44422      -0.004      0.00133
   9.45421      -0.003      0.00133
   9.46420       0.000      0.00133
   9.47419       0.006      0.00133
   9.48419       0.009      0.00133
   9.49418       0.013      0.00133
   9.50417       0.018      0.00133
   9.51417       0.020      0.00133
   9.52416       0.022      0.00133
   9.53415       0.023      0.00133
   9.54414       0.023      0.00133
   9.55414       0.020      0.00133
   9.56413       0.019      0.00132
   9.57412       0.015      0.00132
   9.58412       0.014      0.00132
   9.59411       0.009      0.00132
   9.60410       0.007      0.00132
   9.61409       0.007      0.00132
   9.62409       0.005      0.00132
   9.63408       0.009      0.00132
   9.64407       0.010      0.00132
   9.65407       0.007      0.00132
   9.66406       0.008      0.00132
   9.67405       0.006      0.00132
   9.68404       0.002      0.00132
   9.69404       0.003      0.00132
   9.70403       0.002      0.00131
   9.71402      -0.001      0.00131
   9.72402       0.000      0.00131
   9.73401       0.001      0.00131
   9.74400       0.001      0.00131
   9.75399       0.004      0.00131
   9.76399       0.006      0.00131
   9.77398       0.009      0.00131
   9.78397       0.011      0.00131
   9.79397       0.009      0.00131
   9.80396       0.010      0.00131
   9.81395       0.006      0.00131
   9.82394       0.001      0.00131
   9.83394       0.001      0.00131
   9.84393      -0.007      0.00130
   9.85392      -0.013      0.00130
   9.86391      -0.010      0.00130
   9.87391      -0.012      0.00130
   9.88390      -0.013      0.00130
   9.89389      -0.009      0.00130
   9.90389      -0.007      0.00130
   9.91388      -0.002      0.00131
   9.92387       0.002      0.00131
   9.93386       0.006      0.00131
   9.94386       0.009      0.00132
   9.95385       0.008      0.00132
   9.96384       0.007      0.00132
   9.97384       0.015      0.00132
   9.98383       0.012      0.00133
   9.99382       0.011      0.00133
  10.00381       0.018      0.00133
  10.01381       0.015      0.00133
  10.02380       0.016      0.00133
  10.03379       0.021      0.00133
  10.04379       0.022      0.00133
  10.05378       0.021      0.00134
  10.06377       0.021      0.00134
  10.07376       0.020      0.00134
  10.08376       0.022      0.00134
  10.09375       0.020      0.00134
  10.10374       0.018      0.00134
  10.11374       0.021      0.00134
  10.12373       0.016      0.00134
  10.13372       0.009      0.00134
  10.14371       0.009      0.00134
  10.15371       0.005      0.00134
  10.16370       0.006      0.00135
  10.17369       0.011      0.00134
  10.18369       0.009      0.00135
  10.19368       0.007      0.00135
  10.20367       0.008      0.00135
  10.21366       0.002      0.00135
  10.22366       0.006      0.00135
  10.23365       0.004      0.00135
  10.24364      -0.001      0.00135
  10.25363      -0.000      0.00135
  10.26363      -0.002      0.00135
  10.27362      -0.002      0.00135
  10.28361       0.002      0.00135
  10.29361       0.001      0.00135
  10.30360       0.009      0.00135
  10.31359       0.007      0.00135
  10.32358       0.003      0.00135
  10.33358       0.007      0.00135
  10.34357       0.002      0.00135
  10.35356      -0.004      0.00135
  10.36356      -0.001      0.00135
  10.37355      -0.006      0.00135
  10.38354      -0.007      0.00135
  10.39353      -0.003      0.00135
  10.40353      -0.004      0.00135
  10.41352      -0.002      0.00136
  10.42351       0.001      0.00135
  10.43351      -0.001      0.00136
  10.44350       0.002      0.00136
  10.45349       0.004      0.00136
  10.46348       0.003      0.00136
  10.47348       0.006      0.00136
  10.48347       0.007      0.00136
  10.49346       0.005      0.00136
  10.50346       0.007      0.00136
  10.51345       0.005      0.00136
  10.52344       0.005      0.00136
  10.53343       0.005      0.00136
  10.54343       0.001      0.00136
  10.55342       0.001      0.00136
  10.56341      -0.001      0.00136
  10.57341      -0.001      0.00136
  10.58340       0.004      0.00136
  10.59339       0.004      0.00136
  10.60338       0.007      0.00136
  10.61338       0.016      0.00136
  10.62337       0.016      0.00136
  10.63336       0.019      0.00137
  10.64335       0.019      0.00137
  10.65335       0.014      0.00136
  10.66334       0.012      0.00136
  10.67333       0.012      0.00136
  10.68333       0.008      0.00136
  10.69332       0.009      0.00137
  10.70331       0.009      0.00136
  10.71330       0.009      0.00137
  10.72330       0.009      0.00137
  10.73329       0.007      0.00137
  10.74328       0.014      0.00138
  10.75328       0.015      0.00139
  10.76327       0.013      0.00139
  10.77326       0.015      0.00139
  10.78325       0.014      0.00139
  10.79325       0.011      0.00139
  10.80324       0.013      0.00140
  10.81323       0.011      0.00140
  10.82323       0.002      0.00140
  10.83322       0.002      0.00140
  10.84321       0.000      0.00140
  10.85320      -0.004      0.00140
  10.86320      -0.001      0.00140
  10.87319       0.001      0.00140
  10.88318       0.003      0.00140
  10.89318       0.004      0.00141
  10.90317       0.002      0.00141
  10.91316       0.005      0.00141
  10.92315       0.007      0.00141
  10.93315       0.006      0.00141
  10.94314       0.015      0.00142
  10.95313       0.013      0.00142
  10.96313       0.015      0.00142
  10.97312       0.021      0.00142
  10.98311       0.024      0.00142
  10.99310       0.027      0.00142
  11.00310       0.033      0.00143
  11.01309       0.032      0.00143
  11.02308       0.033      0.00143
  11.03308       0.032      0.00143
  11.04307       0.028      0.00143
  11.05306       0.030      0.00143
  11.06305       0.026      0.00143
  11.07305       0.019      0.00144
  11.08304       0.022      0.00144
  11.09303       0.014      0.00145
  11.10302       0.010      0.00145
  11.11302       0.009      0.00146
  11.12301       0.003      0.00146
  11.13300      -0.000      0.00147
  11.14300      -0.003      0.00147
  11.15299      -0.008      0.00147
  11.16298      -0.007      0.00147
  11.17297      -0.011      0.00147
  11.18297      -0.012      0.00148
  11.19296      -0.005      0.00148
  11.20295      -0.003      0.00148
  11.21295       0.001      0.00149
  11.22294       0.007      0.00149
  11.23293       0.009      0.00149
  11.24292       0.014      0.00149
  11.25292       0.014      0.00150
  11.26291       0.016      0.00150
  11.27290       0.023      0.00151
  11.28290       0.020      0.00151
  11.29289       0.019      0.00151
  11.30288       0.020      0.00152
  11.31287       0.013      0.00152
  11.32287       0.009      0.00152
  11.33286       0.007      0.00152
  11.34285       0.003      0.00152
  11.35285       0.007      0.00153
  11.36284       0.005      0.00153
  11.37283       0.007      0.00153
  11.38282       0.013      0.00154
  11.39282       0.008      0.00154
  11.40281       0.008      0.00154
  11.41280       0.013      0.00154
  11.42280       0.008      0.00155
  11.43279       0.007      0.00155
  11.44278       0.006      0.00155
  11.45277      -0.001      0.00155
  11.46277       0.000      0.00155
  11.47276      -0.004      0.00156
  11.48275      -0.012      0.00156
  11.49274      -0.006      0.00156
  11.50274      -0.010      0.00156
  11.51273      -0.009      0.00157
  11.52272      -0.004      0.00157
  11.53272      -0.007      0.00157
  11.54271      -0.001      0.00157
  11.55270       0.009      0.00158
  11.56269       0.004      0.00158
  11.57269       0.013      0.00158
  11.58268       0.015      0.00159
  11.59267       0.011      0.00159
  11.60267       0.021      0.00160
  11.61266       0.023      0.00160
  11.62265       0.017      0.00160
  11.63264       0.022      0.00160
  11.64264       0.017      0.00160
  11.65263       0.011      0.00160
  11.66262       0.008      0.00161
  11.67262       0.006      0.00161
  11.68261       0.009      0.00161
  11.69260       0.012      0.00162
  11.70259       0.009      0.00162
  11.71259       0.011      0.00162
  11.72258       0.009      0.00162
  11.73257       0.014      0.00162
  11.74257       0.023      0.00163
  11.75256       0.019      0.00163
  11.76255       0.022      0.00163
  11.77254       0.029      0.00164
  11.78254       0.021      0.00164
  11.79253       0.025      0.00164
  11.80252       0.029      0.00165
  11.81252       0.034      0.00165
  11.82251       0.044      0.00165
  11.83250       0.048      0.00165
  11.84249       0.044      0.00166
  11.85249       0.044      0.00166
  11.86248       0.038      0.00166
  11.87247       0.042      0.00166
  11.88246       0.036      0.00167
  11.89246       0.028      0.00167
  11.90245       0.032      0.00167
  11.91244       0.028      0.00167
  11.92244       0.018      0.00167
  11.93243       0.026      0.00168
  11.94242       0.022      0.00168
  11.95241       0.015      0.00168
  11.96241       0.023      0.00168
  11.97240       0.018      0.00168
  11.98239       0.018      0.00169
  11.99239       0.024      0.00169
  12.00238       0.027      0.00169
  12.01237       0.030      0.00169
  12.02236       0.030      0.00170
  12.03236       0.026      0.00170
  12.04235       0.032      0.00170
  12.05234       0.030      0.00170
  12.06234       0.030      0.00170
  12.07233       0.031      0.00171
  12.08232       0.025      0.00171
  12.09231       0.019      0.00171
  12.10231       0.019      0.00171
  12.11230       0.011      0.00171
  12.12229       0.019      0.00172
  12.13229       0.023      0.00172
  12.14228       0.024      0.00172
  12.15227       0.030      0.00173
  12.16226       0.029      0.00173
  12.17226       0.030      0.00173
  12.18225       0.041      0.00174
  12.19224       0.039      0.00174
  12.20224       0.037      0.00174
  12.21223       0.036      0.00174
  12.22222       0.026      0.00174
  12.23221       0.021      0.00174
  12.24221       0.013      0.00174
  12.25220       0.006      0.00174
  12.26219       0.010      0.00175
  12.27218       0.006      0.00175
  12.28218       0.002      0.00175
  12.29217      -0.001      0.00175
  12.30216      -0.005      0.00176
  12.31216      -0.007      0.00176
  12.32215      -0.012      0.00176
  12.33214      -0.016      0.00176
  12.34213      -0.013      0.00176
  12.35213      -0.020      0.00177
  12.36212      -0.021      0.00177
  12.37211      -0.012      0.00177
  12.38211      -0.012      0.00177
  12.39210      -0.005      0.00178
  12.40209       0.001      0.00178
  12.41208      -0.003      0.00178
  12.42208       0.002      0.00179
  12.43207       0.002      0.00179
  12.44206       0.006      0.00179
  12.45206       0.022      0.00179
  12.46205       0.023      0.00180
  12.47204       0.033      0.00180
  12.48203       0.037      0.00181
  12.49203       0.036      0.00181
  12.50202       0.038      0.00181
  12.51201       0.038      0.00181
  12.52201       0.029      0.00182
  12.53200       0.029      0.00182
  12.54199       0.020      0.00182
  12.55198       0.001      0.00182
  12.56198       0.000      0.00182
  12.57197      -0.016      0.00182
  12.58196      -0.022      0.00182
  12.59196      -0.020      0.00183
  12.60195      -0.033      0.00183
  12.61194      -0.028      0.00183
  12.62193      -0.021      0.00184
  12.63193      -0.019      0.00184
  12.64192      -0.010      0.00184
  12.65191      -0.007      0.00185
  12.66190      -0.010      0.00185
  12.67190       0.017      0.00186
  12.68189       0.044      0.00187
  12.69188       0.058      0.00188
  12.70188       0.100      0.00189
  12.71187       0.134      0.00191
  12.72186       0.153      0.00192
  12.73185       0.169      0.00193
  12.74185       0.187      0.00194
  12.75184       0.207      0.00195
  12.76183       0.225      0.00196
  12.77183       0.241      0.00198
  12.78182       0.254      0.00199
  12.79181       0.266      0.00200
  12.80180       0.277      0.00200
  12.81180       0.287      0.00201
  12.82179       0.298      0.00202
  12.83178       0.309      0.00203
  12.84178       0.321      0.00204
  12.85177       0.333      0.00205
  12.86176       0.342      0.00206
  12.87175       0.350      0.00207
  12.88175       0.356      0.00208
  12.89174       0.361      0.00208
  12.90173       0.365      0.00209
  12.91173       0.369      0.00210
  12.92172       0.373      0.00211
  12.93171       0.378      0.00211
  12.94170       0.383      0.00212
  12.95170       0.387      0.00213
  12.96169       0.391      0.00214
  12.97168       0.392      0.00215
  12.98168       0.390      0.00215
  12.99167       0.387      0.00216
  13.00166       0.381      0.00217
  13.01165       0.374      0.00217
  13.02165       0.365      0.00218
  13.03164       0.356      0.00218
  13.04163       0.347      0.00219
  13.05162       0.338      0.00220
  13.06162       0.329      0.00220
  13.07161       0.319      0.00221
  13.08160       0.308      0.00221
  13.09160       0.297      0.00222
  13.10159       0.286      0.00223
  13.11158       0.275      0.00223
  13.12157       0.264      0.00224
  13.13157       0.255      0.00224
  13.14156       0.244      0.00225
  13.15155       0.235      0.00226
  13.16155       0.226      0.00226
  13.17154       0.217      0.00227
  13.18153       0.209      0.00228
  13.19152       0.202      0.00228
  13.20152       0.197      0.00229
  13.21151       0.193      0.00230
  13.22150       0.191      0.00230
  13.23150       0.189      0.00231
  13.24149       0.188      0.00232
  13.25148       0.187      0.00232
  13.26147       0.187      0.00233
  13.27147       0.186      0.00234
  13.28146       0.184      0.00235
  13.29145       0.180      0.00235
  13.30145       0.177      0.00236
  13.31144       0.173      0.00237
  13.32143       0.170      0.00238
  13.33142       0.167      0.00239
  13.34142       0.164      0.00239
  13.35141       0.161      0.00239
  13.36140       0.157      0.00241
  13.37140       0.154      0.00241
  13.38139       0.152      0.00242
  13.39138       0.151      0.00243
  13.40137       0.150      0.00244
  13.41137       0.151      0.00244
  13.42136       0.153      0.00245
  13.43135       0.155      0.00246
  13.44135       0.158      0.00247
  13.45134       0.159      0.00247
  13.46133       0.161      0.00249
  13.47132       0.162      0.00249
  13.48132       0.163      0.00250
  13.49131       0.163      0.00251
  13.50130       0.162      0.00252
  13.51129       0.162      0.00253
  13.52129       0.164      0.00253
  13.53128       0.165      0.00254
  13.54127       0.169      0.00255
  13.55127       0.172      0.00256
  13.56126       0.177      0.00257
  13.57125       0.180      0.00258
  13.58124       0.183      0.00259
  13.59124       0.185      0.00260
  13.60123       0.186      0.00260
  13.61122       0.187      0.00261
  13.62122       0.188      0.00262
  13.63121       0.191      0.00264
  13.64120       0.197      0.00264
  13.65119       0.205      0.00265
  13.66119       0.219      0.00266
  13.67118       0.240      0.00268
  13.68117       0.266      0.00269
  13.69117       0.303      0.00270
  13.70116       0.350      0.00272
  13.71115       0.409      0.00274
  13.72114       0.480      0.00275
  13.73114       0.566      0.00278
  13.74113       0.664      0.00280
  13.75112       0.778      0.00283
  13.76112       0.908      0.00285
  13.77111       1.060      0.00288
  13.78110       1.228      0.00292
  13.79109       1.419      0.00296
  13.80109       1.641      0.00300
  13.81108       1.891      0.00304
  13.82107       2.163      0.00309
  13.83107       2.462      0.00314
  13.84106       2.796      0.00319
  13.85105       3.156      0.00325
  13.86104       3.536      0.00332
  13.87104       3.927      0.00338
  13.88103       4.339      0.00344
  13.89102       4.753      0.00350
  13.90101       5.166      0.00358
  13.91101       5.572      0.00363
  13.92100       5.971      0.00369
  13.93099       6.350      0.00375
  13.94099       6.704      0.00381
  13.95098       7.023      0.00386
  13.96097       7.304      0.00390
  13.97096       7.533      0.00395
  13.98096       7.711      0.00398
  13.99095       7.832      0.00401
  14.00094       7.896      0.00403
  14.01094       7.903      0.00405
  14.02093       7.851      0.00406
  14.03092       7.743      0.00406
  14.04091       7.580      0.00405
  14.05091       7.373      0.00405
  14.06090       7.123      0.00402
  14.07089       6.835      0.00401
  14.08089       6.525      0.00398
  14.09088       6.195      0.00396
  14.10087       5.854      0.00392
  14.11086       5.493      0.00389
  14.12086       5.139      0.00387
  14.13085       4.781      0.00384
  14.14084       4.437      0.00380
  14.15084       4.094      0.00376
  14.16083       3.773      0.00374
  14.17082       3.471      0.00371
  14.18081       3.191      0.00368
  14.19081       2.935      0.00366
  14.20080       2.709      0.00364
  14.21079       2.515      0.00363
  14.22079       2.354      0.00362
  14.23078       2.234      0.00361
  14.24077       2.149      0.00361
  14.25076       2.110      0.00363
  14.26076       2.118      0.00364
  14.27075       2.178      0.00366
  14.28074       2.290      0.00370
  14.29073       2.464      0.00374
  14.30073       2.693      0.00379
  14.31072       2.970      0.00385
  14.32071       3.304      0.00392
  14.33071       3.689      0.00400
  14.34070       4.117      0.00408
  14.35069       4.578      0.00416
  14.36068       5.085      0.00426
  14.37068       5.630      0.00435
  14.38067       6.191      0.00446
  14.39066       6.761      0.00456
  14.40066       7.331      0.00465
  14.41065       7.896      0.00476
  14.42064       8.420      0.00485
  14.43063       8.899      0.00494
  14.44063       9.309      0.00501
  14.45062       9.645      0.00508
  14.46061       9.880      0.00514
  14.47061      10.016      0.00518
  14.48060      10.043      0.00519
  14.49059       9.964      0.00522
  14.50058       9.783      0.00521
  14.51058       9.499      0.00519
  14.52057       9.133      0.00515
  14.53056       8.687      0.00512
  14.54056       8.177      0.00506
  14.55055       7.617      0.00500
  14.56054       7.039      0.00493
  14.57053       6.438      0.00487
  14.58053       5.832      0.00479
  14.59052       5.244      0.00472
  14.60051       4.690      0.00465
  14.61051       4.139      0.00457
  14.62050       3.627      0.00451
  14.63049       3.154      0.00445
  14.64048       2.724      0.00438
  14.65048       2.317      0.00432
  14.66047       1.963      0.00429
  14.67046       1.652      0.00425
  14.68045       1.379      0.00420
  14.69045       1.143      0.00418
  14.70044       0.943      0.00416
  14.71043       0.775      0.00414
  14.72043       0.636      0.00411
  14.73042       0.522      0.00411
  14.74041       0.430      0.00411
  14.75040       0.354      0.00409
  14.76040       0.295      0.00410
  14.77039       0.248      0.00411
  14.78038       0.208      0.00411
  14.79038       0.175      0.00411
  14.80037       0.146      0.00412
  14.81036       0.122      0.00414
  14.82035       0.103      0.00414
  14.83035       0.091      0.00415
  14.84034       0.086      0.00417
  14.85033       0.091      0.00418
  14.86033       0.097      0.00420
  14.87032       0.109      0.00421
  14.88031       0.125      0.00423
  14.89030       0.142      0.00425
  14.90030       0.164      0.00427
  14.91029       0.192      0.00428
  14.92028       0.231      0.00430
  14.93028       0.280      0.00434
  14.94027       0.340      0.00436
  14.95026       0.415      0.00438
  14.96025       0.501      0.00443
  14.97025       0.604      0.00447
  14.98024       0.728      0.00450
  14.99023       0.873      0.00456
  15.00023       1.044      0.00461
  15.01022       1.244      0.00467
  15.02021       1.478      0.00473
  15.03020       1.734      0.00481
  15.04020       2.037      0.00489
  15.05019       2.367      0.00497
  15.06018       2.729      0.00507
  15.07017       3.122      0.00518
  15.08017       3.581      0.00527
  15.09016       4.039      0.00540
  15.10015       4.542      0.00551
  15.11015       5.091      0.00563
  15.12014       5.637      0.00577
  15.13013       6.208      0.00590
  15.14012       6.796      0.00602
  15.15012       7.371      0.00615
  15.16011       7.925      0.00629
  15.17010       8.467      0.00640
  15.18010       8.959      0.00652
  15.19009       9.403      0.00662
  15.20008       9.805      0.00672
  15.21007      10.136      0.00679
  15.22007      10.398      0.00689
  15.23006      10.588      0.00694
  15.24005      10.700      0.00697
  15.25005      10.730      0.00702
  15.26004      10.683      0.00705
  15.27003      10.553      0.00703
  15.28002      10.361      0.00705
  15.29002      10.102      0.00704
  15.30001       9.772      0.00697
  15.31000       9.403      0.00696
  15.32000       8.986      0.00692
  15.32999       8.512      0.00684
  15.33998       8.032      0.00679
  15.34997       7.523      0.00673
  15.35997       6.986      0.00662
  15.36996       6.470      0.00657
  15.37995       5.956      0.00649
  15.38995       5.450      0.00640
  15.39994       4.977      0.00634
  15.40993       4.523      0.00627
  15.41992       4.083      0.00618
  15.42992       3.677      0.00613
  15.43991       3.297      0.00607
  15.44990       2.935      0.00600
  15.45989       2.606      0.00596
  15.46989       2.304      0.00592
  15.47988       2.029      0.00585
  15.48987       1.776      0.00583
  15.49987       1.549      0.00580
  15.50986       1.344      0.00577
  15.51985       1.164      0.00575
  15.52984       1.010      0.00574
  15.53984       0.883      0.00574
  15.54983       0.783      0.00573
  15.55982       0.706      0.00574
  15.56982       0.647      0.00576
  15.57981       0.604      0.00578
  15.58980       0.573      0.00580
  15.59979       0.553      0.00583
  15.60979       0.546      0.00585
  15.61978       0.551      0.00589
  15.62977       0.571      0.00592
  15.63977       0.607      0.00597
  15.64976       0.663      0.00602
  15.65975       0.744      0.00609
  15.66974       0.851      0.00615
  15.67974       0.993      0.00623
  15.68973       1.176      0.00633
  15.69972       1.397      0.00643
  15.70972       1.665      0.00655
  15.71971       1.981      0.00669
  15.72970       2.347      0.00684
  15.73969       2.772      0.00701
  15.74969       3.243      0.00719
  15.75968       3.781      0.00739
  15.76967       4.366      0.00761
  15.77967       5.010      0.00785
  15.78966       5.704      0.00808
  15.79965       6.433      0.00833
  15.80964       7.203      0.00860
  15.81964       7.999      0.00887
  15.82963       8.800      0.00915
  15.83962       9.627      0.00942
  15.84962      10.415      0.00968
  15.85961      11.196      0.00995
  15.86960      11.927      0.01022
  15.87959      12.595      0.01045
  15.88959      13.186      0.01068
  15.89958      13.676      0.01090
  15.90957      14.047      0.01106
  15.91956      14.287      0.01122
  15.92956      14.380      0.01135
  15.93955      14.330      0.01144
  15.94954      14.131      0.01149
  15.95954      13.790      0.01150
  15.96953      13.320      0.01150
  15.97952      12.736      0.01146
  15.98951      12.052      0.01137
  15.99951      11.286      0.01129
  16.00950      10.473      0.01117
  16.01949       9.618      0.01104
  16.02949       8.755      0.01090
  16.03948       7.895      0.01073
  16.04947       7.053      0.01060
  16.05946       6.249      0.01044
  16.06946       5.495      0.01028
  16.07945       4.790      0.01016
  16.08944       4.140      0.01003
  16.09944       3.569      0.00996
  16.10943       3.059      0.00984
  16.11942       2.610      0.00979
  16.12941       2.222      0.00978
  16.13941       1.882      0.00974
  16.14940       1.592      0.00974
  16.15939       1.334      0.00977
  16.16939       1.105      0.00980
  16.17938       0.910      0.00985
  16.18937       0.745      0.00993
  16.19936       0.607      0.01000
  16.20936       0.498      0.01012
  16.21935       0.413      0.01026
  16.22934       0.351      0.01041
  16.23934       0.302      0.01058
  16.24933       0.268      0.01077
  16.25932       0.242      0.01097
  16.26931       0.227      0.01118
  16.27931       0.225      0.01145
  16.28930       0.230      0.01169
  16.29929       0.247      0.01199
  16.30928       0.264      0.01232
  16.31928       0.280      0.01266
  16.32927       0.284      0.01303
  16.33926       0.277      0.01343
  16.34926       0.261      0.01383
  16.35925       0.240      0.01430
  16.36924       0.220      0.01483
  16.37923       0.211      0.01543
  16.38923       0.212      0.01608
  16.39922       0.227      0.01682
  16.40921       0.239      0.01742
  16.41921       0.243      0.01804
  16.42920       0.230      0.01862
  16.43919       0.202      0.01916
  16.44918       0.151      0.01978
  16.45918       0.086      0.02046
  16.46917       0.014      0.02116
  16.47916      -0.054      0.02203
  16.48916      -0.102      0.02297
  16.49915      -0.118      0.02414
  16.50914      -0.103      0.02555
  16.51913      -0.058      0.02732
  16.52913      -0.006      0.02938
  16.53912       0.042      0.03235
  16.54911       0.073      0.03573
  16.55911       0.076      0.04074
  16.56910       0.062      0.04887
  16.57909       0.039      0.06160
  16.58908       0.037      0.08973
  16.59908       0.024      0.14224
  16.60907      -0.015      0.38211
