  1.54056
   4.00656      -0.007      0.00146
   4.01655      -0.004      0.00146
   4.02654      -0.003      0.00145
   4.03653      -0.001      0.00146
   4.04652       0.001      0.00145
   4.05651       0.003      0.00145
   4.06650       0.000      0.00145
   4.07648       0.001      0.00145
   4.08647      -0.001      0.00144
   4.09646      -0.002      0.00144
   4.10645       0.000      0.00144
   4.11644      -0.002      0.00144
   4.12643      -0.002      0.00144
   4.13642       0.002      0.00144
   4.14641       0.000      0.00143
   4.15640       0.004      0.00143
   4.16638       0.007      0.00143
   4.17637       0.007      0.00143
   4.18636       0.010      0.00142
   4.19635       0.014      0.00143
   4.20634       0.012      0.00142
   4.21633       0.010      0.00142
   4.22632       0.011      0.00142
   4.23631       0.007      0.00142
   4.24630       0.005      0.00141
   4.25629       0.004      0.00141
   4.26627       0.001      0.00141
   4.27626       0.003      0.00141
   4.28625       0.005      0.00141
   4.29624       0.004      0.00141
   4.30623       0.007      0.00140
   4.31622       0.011      0.00141
   4.32621       0.014      0.00140
   4.33620       0.016      0.00140
   4.34619       0.019      0.00140
   4.35617       0.021      0.00140
   4.36616       0.025      0.00140
   4.37615       0.026      0.00140
   4.38614       0.026      0.00140
   4.39613       0.030      0.00140
   4.40612       0.030      0.00140
   4.41611       0.029      0.00139
   4.42610       0.029      0.00139
   4.43609       0.030      0.00139
   4.44607       0.030      0.00139
   4.45606       0.028      0.00139
   4.46605       0.029      0.00139
   4.47604       0.028      0.00138
   4.48603       0.024      0.00138
   4.49602       0.024      0.00138
   4.50601       0.026      0.00138
   4.51600       0.024      0.00138
   4.52599       0.024      0.00137
   4.53598       0.028      0.00137
   4.54596       0.029      0.00138
   4.55595       0.029      0.00137
   4.56594       0.032      0.00137
   4.57593       0.029      0.00137
   4.58592       0.030      0.00137
   4.59591       0.030      0.00137
   4.60590       0.024      0.00137
   4.61589       0.020      0.00136
   4.62588       0.019      0.00136
   4.63586       0.015      0.00136
   4.64585       0.015      0.00135
   4.65584       0.015      0.00135
   4.66583       0.016      0.00135
   4.67582       0.019      0.00135
   4.68581       0.020      0.00135
   4.69580       0.021      0.00135
   4.70579       0.025      0.00135
   4.71578       0.025      0.00135
   4.72577       0.026      0.00135
   4.73575       0.030      0.00135
   4.74574       0.029      0.00135
   4.75573       0.031      0.00134
   4.76572       0.037      0.00134
   4.77571       0.037      0.00134
   4.78570       0.037      0.00134
   4.79569       0.037      0.00134
   4.80568       0.036      0.00134
   4.81567       0.035      0.00134
   4.82565       0.038      0.00134
   4.83564       0.033      0.00133
   4.84563       0.035      0.00133
   4.85562       0.033      0.00133
   4.86561       0.029      0.00133
   4.87560       0.027      0.00133
   4.88559       0.027      0.00133
   4.89558       0.027      0.00132
   4.90557       0.022      0.00132
   4.91555       0.022      0.00132
   4.92554       0.022      0.00132
   4.93553       0.023      0.00132
   4.94552       0.023      0.00132
   4.95551       0.027      0.00132
   4.96550       0.027      0.00132
   4.97549       0.025      0.00131
   4.98548       0.026      0.00131
   4.99547       0.027      0.00131
   5.00546       0.025      0.00131
   5.01544       0.028      0.00131
   5.02543       0.028      0.00131
   5.03542       0.027      0.00131
   5.04541       0.023      0.00130
   5.05540       0.021      0.00130
   5.06539       0.017      0.00130
   5.07538       0.019      0.00130
   5.08537       0.021      0.00130
   5.09536       0.026      0.00130
   5.10534       0.028      0.00130
   5.11533       0.031      0.00130
   5.12532       0.029      0.00129
   5.13531       0.030      0.00129
   5.14530       0.026      0.00129
   5.15529       0.024      0.00129
   5.16528       0.022      0.00129
   5.17527       0.021      0.00129
   5.18526       0.017      0.00128
   5.19524       0.011      0.00128
   5.20523       0.011      0.00128
   5.21522       0.011      0.00128
   5.22521       0.011      0.00128
   5.23520       0.013      0.00128
   5.24519       0.015      0.00128
   5.25518       0.013      0.00128
   5.26517       0.010      0.00127
   5.27516       0.011      0.00127
   5.28515       0.010      0.00127
   5.29513       0.010      0.00127
   5.30512       0.010      0.00127
   5.31511       0.006      0.00127
   5.32510       0.007      0.00126
   5.33509       0.007      0.00126
   5.34508       0.006      0.00126
   5.35507       0.008      0.00126
   5.36506       0.008      0.00126
   5.37505       0.005      0.00126
   5.38503       0.006      0.00126
   5.39502       0.002      0.00125
   5.40501       0.001      0.00125
   5.41500       0.005      0.00125
   5.42499       0.009      0.00125
   5.43498       0.011      0.00125
   5.44497       0.014      0.00125
   5.45496       0.014      0.00125
   5.46495       0.015      0.00125
   5.47494       0.018      0.00125
   5.48492       0.017      0.00125
   5.49491       0.019      0.00125
   5.50490       0.023      0.00125
   5.51489       0.023      0.00125
   5.52488       0.022      0.00125
   5.53487       0.022      0.00125
   5.54486       0.022      0.00124
   5.55485       0.024      0.00124
   5.56484       0.020      0.00124
   5.57482       0.019      0.00124
   5.58481       0.020      0.00124
   5.59480       0.016      0.00124
   5.60479       0.016      0.00123
   5.61478       0.016      0.00124
   5.62477       0.015      0.00123
   5.63476       0.014      0.00123
   5.64475       0.013      0.00123
   5.65474       0.009      0.00123
   5.66472       0.005      0.00122
   5.67471       0.007      0.00123
   5.68470       0.007      0.00122
   5.69469       0.007      0.00122
   5.70468       0.006      0.00122
   5.71467       0.007      0.00122
   5.72466       0.008      0.00122
   5.73465       0.006      0.00122
   5.74464       0.007      0.00122
   5.75463       0.010      0.00122
   5.76461       0.008      0.00122
   5.77460       0.007      0.00121
   5.78459       0.009      0.00122
   5.79458       0.006      0.00121
   5.80457       0.005      0.00121
   5.81456       0.008      0.00121
   5.82455       0.007      0.00121
   5.83454       0.010      0.00121
   5.84453       0.014      0.00121
   5.85451       0.017      0.00121
   5.86450       0.021      0.00121
   5.87449       0.025      0.00121
   5.88448       0.029      0.00121
   5.89447       0.031      0.00121
   5.90446       0.031      0.00121
   5.91445       0.030      0.00121
   5.92444       0.030      0.00121
   5.93443       0.028      0.00121
   5.94441       0.027      0.00120
   5.95440       0.026      0.00120
   5.96439       0.025      0.00120
   5.97438       0.027      0.00120
   5.98437       0.026      0.00120
   5.99436       0.024      0.00120
   6.00435       0.026      0.00119
   6.01434       0.033      0.00120
   6.02433       0.035      0.00120
   6.03432       0.039      0.00120
   6.04430       0.047      0.00120
   6.05429       0.048      0.00120
   6.06428       0.051      0.00119
   6.07427       0.054      0.00120
   6.08426       0.056      0.00119
   6.09425       0.059      0.00119
   6.10424       0.060      0.00119
   6.11423       0.063      0.00119
   6.12422       0.067      0.00119
   6.13420       0.070      0.00119
   6.14419       0.076      0.00119
   6.15418       0.088      0.00119
   6.16417       0.096      0.00119
   6.17416       0.104      0.00119
   6.18415       0.115      0.00120
   6.19414       0.124      0.00120
   6.20413       0.134      0.00120
   6.21412       0.146      0.00120
   6.22410       0.163      0.00120
   6.23409       0.183      0.00120
   6.24408       0.210      0.00121
   6.25407       0.247      0.00121
   6.26406       0.300      0.00122
   6.27405       0.371      0.00123
   6.28404       0.467      0.00124
   6.29403       0.595      0.00126
   6.30402       0.765      0.00129
   6.31401       0.990      0.00132
   6.32399       1.280      0.00137
   6.33398       1.661      0.00142
   6.34397       2.142      0.00149
   6.35396       2.733      0.00157
   6.36395       3.456      0.00165
   6.37394       4.312      0.00175
   6.38393       5.280      0.00186
   6.39392       6.378      0.00197
   6.40391       7.566      0.00209
   6.41389       8.785      0.00220
   6.42388      10.037      0.00231
   6.43387      11.235      0.00240
   6.44386      12.326      0.00249
   6.45385      13.284      0.00256
   6.46384      14.048      0.00262
   6.47383      14.578      0.00266
   6.48382      14.830      0.00267
   6.49381      14.788      0.00267
   6.50380      14.454      0.00265
   6.51378      13.831      0.00260
   6.52377      12.984      0.00253
   6.53376      11.925      0.00244
   6.54375      10.750      0.00234
   6.55374       9.489      0.00224
   6.56373       8.201      0.00212
   6.57372       6.956      0.00200
   6.58371       5.793      0.00188
   6.59370       4.715      0.00177
   6.60368       3.789      0.00166
   6.61367       2.979      0.00156
   6.62366       2.312      0.00147
   6.63365       1.773      0.00140
   6.64364       1.342      0.00134
   6.65363       1.010      0.00129
   6.66362       0.764      0.00125
   6.67361       0.577      0.00122
   6.68360       0.440      0.00120
   6.69358       0.344      0.00119
   6.70357       0.271      0.00117
   6.71356       0.220      0.00116
   6.72355       0.184      0.00116
   6.73354       0.155      0.00115
   6.74353       0.135      0.00115
   6.75352       0.117      0.00114
   6.76351       0.102      0.00114
   6.77350       0.092      0.00114
   6.78349       0.079      0.00113
   6.79347       0.071      0.00113
   6.80346       0.067      0.00113
   6.81345       0.063      0.00113
   6.82344       0.059      0.00113
   6.83343       0.055      0.00112
   6.84342       0.049      0.00112
   6.85341       0.045      0.00112
   6.86340       0.040      0.00112
   6.87339       0.035      0.00112
   6.88337       0.030      0.00111
   6.89336       0.026      0.00112
   6.90335       0.022      0.00111
   6.91334       0.023      0.00111
   6.92333       0.020      0.00111
   6.93332       0.021      0.00111
   6.94331       0.025      0.00111
   6.95330       0.025      0.00111
   6.96329       0.024      0.00111
   6.97327       0.024      0.00111
   6.98326       0.025      0.00111
   6.99325       0.024      0.00111
   7.00324       0.026      0.00111
   7.01323       0.024      0.00110
   7.02322       0.024      0.00110
   7.03321       0.019      0.00110
   7.04320       0.015      0.00110
   7.05319       0.013      0.00110
   7.06318       0.014      0.00110
   7.07316       0.011      0.00110
   7.08315       0.012      0.00110
   7.09314       0.014      0.00110
   7.10313       0.014      0.00109
   7.11312       0.013      0.00110
   7.12311       0.012      0.00109
   7.13310       0.013      0.00109
   7.14309       0.013      0.00109
   7.15308       0.011      0.00109
   7.16306       0.012      0.00109
   7.17305       0.014      0.00109
   7.18304       0.013      0.00109
   7.19303       0.016      0.00109
   7.20302       0.017      0.00109
   7.21301       0.018      0.00109
   7.22300       0.019      0.00109
   7.23299       0.018      0.00109
   7.24298       0.015      0.00108
   7.25297       0.014      0.00108
   7.26295       0.013      0.00108
   7.27294       0.011      0.00108
   7.28293       0.014      0.00108
   7.29292       0.014      0.00108
   7.30291       0.014      0.00108
   7.31290       0.014      0.00108
   7.32289       0.014      0.00108
   7.33288       0.014      0.00108
   7.34287       0.012      0.00108
   7.35285       0.010      0.00107
   7.36284       0.011      0.00107
   7.37283       0.007      0.00107
   7.38282       0.003      0.00107
   7.39281       0.004      0.00107
   7.40280      -0.001      0.00107
   7.41279      -0.001      0.00107
   7.42278       0.002      0.00107
   7.43277      -0.001      0.00106
   7.44275      -0.003      0.00106
   7.45274       0.001      0.00106
   7.46273      -0.002      0.00106
   7.47272      -0.004      0.00106
   7.48271      -0.002      0.00106
   7.49270       0.000      0.00106
   7.50269       0.002      0.00106
   7.51268       0.006      0.00106
   7.52267       0.009      0.00106
   7.53266       0.010      0.00106
   7.54264       0.012      0.00106
   7.55263       0.013      0.00106
   7.56262       0.014      0.00106
   7.57261       0.012      0.00106
   7.58260       0.012      0.00106
   7.59259       0.014      0.00106
   7.60258       0.015      0.00106
   7.61257       0.017      0.00106
   7.62256       0.019      0.00106
   7.63254       0.020      0.00105
   7.64253       0.021      0.00105
   7.65252       0.023      0.00106
   7.66251       0.022      0.00105
   7.67250       0.023      0.00105
   7.68249       0.022      0.00105
   7.69248       0.016      0.00105
   7.70247       0.015      0.00105
   7.71246       0.008      0.00105
   7.72244       0.004      0.00104
   7.73243       0.001      0.00104
   7.74242      -0.003      0.00104
   7.75241      -0.004      0.00104
   7.76240      -0.005      0.00104
   7.77239      -0.006      0.00104
   7.78238      -0.005      0.00104
   7.79237      -0.002      0.00104
   7.80236      -0.000      0.00104
   7.81235       0.001      0.00104
   7.82233       0.004      0.00104
   7.83232       0.005      0.00104
   7.84231       0.009      0.00104
   7.85230       0.010      0.00104
   7.86229       0.010      0.00104
   7.87228       0.013      0.00104
   7.88227       0.011      0.00104
   7.89226       0.012      0.00103
   7.90225       0.014      0.00104
   7.91223       0.014      0.00103
   7.92222       0.015      0.00104
   7.93221       0.016      0.00104
   7.94220       0.014      0.00103
   7.95219       0.014      0.00103
   7.96218       0.012      0.00103
   7.97217       0.010      0.00103
   7.98216       0.009      0.00103
   7.99215       0.007      0.00103
   8.00213       0.005      0.00103
   8.01212       0.007      0.00103
   8.02211       0.007      0.00103
   8.03210       0.007      0.00103
   8.04209       0.007      0.00103
   8.05208       0.005      0.00102
   8.06207       0.005      0.00102
   8.07206       0.006      0.00102
   8.08205       0.004      0.00102
   8.09204       0.007      0.00102
   8.10202       0.010      0.00102
   8.11201       0.010      0.00102
   8.12200       0.011      0.00102
   8.13199       0.011      0.00102
   8.14198       0.010      0.00102
   8.15197       0.012      0.00102
   8.16196       0.009      0.00102
   8.17195       0.007      0.00102
   8.18194       0.007      0.00102
   8.19192       0.004      0.00102
   8.20191       0.001      0.00102
   8.21190       0.003      0.00102
   8.22189       0.000      0.00101
   8.23188      -0.001      0.00101
   8.24187       0.001      0.00101
   8.25186       0.000      0.00101
   8.26185      -0.000      0.00101
   8.27184      -0.000      0.00101
   8.28183      -0.001      0.00101
   8.29181       0.001      0.00101
   8.30180      -0.000      0.00101
   8.31179       0.000      0.00101
   8.32178       0.003      0.00101
   8.33177      -0.000      0.00101
   8.34176       0.000      0.00101
   8.35175       0.002      0.00101
   8.36174       0.001      0.00101
   8.37173       0.002      0.00101
   8.38171       0.003      0.00101
   8.39170       0.003      0.00100
   8.40169       0.004      0.00101
   8.41168       0.007      0.00101
   8.42167       0.007      0.00100
   8.43166       0.010      0.00101
   8.44165       0.010      0.00100
   8.45164       0.011      0.00100
   8.46163       0.013      0.00100
   8.47161       0.013      0.00100
   8.48160       0.013      0.00100
   8.49159       0.015      0.00100
   8.50158       0.013      0.00100
   8.51157       0.011      0.00100
   8.52156       0.008      0.00100
   8.53155       0.005      0.00100
   8.54154       0.004      0.00100
   8.55153       0.002      0.00100
   8.56152       0.002      0.00100
   8.57150       0.003      0.00100
   8.58149       0.001      0.00099
   8.59148       0.001      0.00099
   8.60147       0.004      0.00100
   8.61146       0.004      0.00099
   8.62145       0.006      0.00099
   8.63144       0.008      0.00099
   8.64143       0.009      0.00099
   8.65142       0.008      0.00099
   8.66140       0.007      0.00099
   8.67139       0.004      0.00099
   8.68138       0.003      0.00099
   8.69137       0.002      0.00099
   8.70136       0.003      0.00099
   8.71135       0.004      0.00099
   8.72134       0.003      0.00099
   8.73133       0.004      0.00099
   8.74132       0.006      0.00099
   8.75130       0.005      0.00099
   8.76129       0.005      0.00099
   8.77128       0.008      0.00099
   8.78127       0.008      0.00098
   8.79126       0.009      0.00099
   8.80125       0.009      0.00099
   8.81124       0.010      0.00098
   8.82123       0.012      0.00098
   8.83122       0.012      0.00098
   8.84121       0.012      0.00098
   8.85119       0.015      0.00098
   8.86118       0.016      0.00098
   8.87117       0.014      0.00098
   8.88116       0.014      0.00098
   8.89115       0.014      0.00098
   8.90114       0.012      0.00098
   8.91113       0.011      0.00098
   8.92112       0.010      0.00098
   8.93111       0.009      0.00098
   8.94109       0.006      0.00098
   8.95108       0.005      0.00098
   8.96107       0.005      0.00098
   8.97106       0.002      0.00097
   8.98105       0.002      0.00097
   8.99104       0.004      0.00097
   9.00103      -0.000      0.00097
   9.01102      -0.001      0.00097
   9.02101      -0.000      0.00097
   9.03100      -0.003      0.00097
   9.04098      -0.001      0.00097
   9.05097       0.001      0.00097
   9.06096      -0.003      0.00097
   9.07095      -0.002      0.00097
   9.08094      -0.002      0.00097
   9.09093      -0.004      0.00097
   9.10092      -0.003      0.00097
   9.11091       0.000      0.00097
   9.12090       0.002      0.00097
   9.13088       0.006      0.00097
   9.14087       0.008      0.00097
   9.15086       0.010      0.00097
   9.16085       0.012      0.00097
   9.17084       0.013      0.00097
   9.18083       0.011      0.00097
   9.19082       0.012      0.00097
   9.20081       0.010      0.00097
   9.21080       0.011      0.00096
   9.22078       0.011      0.00097
   9.23077       0.009      0.00096
   9.24076       0.011      0.00096
   9.25075       0.010      0.00096
   9.26074       0.009      0.00096
   9.27073       0.010      0.00096
   9.28072       0.010      0.00096
   9.29071       0.009      0.00096
   9.30070       0.006      0.00096
   9.31069       0.005      0.00096
   9.32067       0.004      0.00096
   9.33066       0.003      0.00096
   9.34065       0.002      0.00096
   9.35064       0.004      0.00096
   9.36063       0.004      0.00096
   9.37062       0.004      0.00096
   9.38061       0.007      0.00096
   9.39060       0.007      0.00096
   9.40059       0.007      0.00095
   9.41057       0.010      0.00096
   9.42056       0.011      0.00096
   9.43055       0.013      0.00095
   9.44054       0.013      0.00096
   9.45053       0.014      0.00095
   9.46052       0.014      0.00095
   9.47051       0.012      0.00095
   9.48050       0.011      0.00095
   9.49049       0.008      0.00095
   9.50047       0.004      0.00095
   9.51046       0.001      0.00095
   9.52045       0.001      0.00095
   9.53044      -0.004      0.00095
   9.54043      -0.005      0.00095
   9.55042      -0.001      0.00095
   9.56041      -0.003      0.00095
   9.57040      -0.002      0.00095
   9.58039       0.001      0.00095
   9.59038      -0.003      0.00095
   9.60036      -0.003      0.00095
   9.61035      -0.004      0.00095
   9.62034      -0.004      0.00094
   9.63033      -0.002      0.00094
   9.64032      -0.001      0.00095
   9.65031      -0.001      0.00094
   9.66030      -0.000      0.00095
   9.67029       0.000      0.00094
   9.68028       0.002      0.00094
   9.69026       0.002      0.00094
   9.70025      -0.000      0.00094
   9.71024      -0.001      0.00094
   9.72023      -0.000      0.00094
   9.73022      -0.003      0.00094
   9.74021      -0.002      0.00094
   9.75020      -0.001      0.00094
   9.76019      -0.000      0.00094
   9.77018      -0.000      0.00094
   9.78016      -0.001      0.00094
   9.79015      -0.003      0.00094
   9.80014      -0.001      0.00094
   9.81013      -0.004      0.00094
   9.82012      -0.004      0.00094
   9.83011      -0.002      0.00094
   9.84010      -0.003      0.00094
   9.85009      -0.001      0.00094
   9.86008       0.001      0.00094
   9.87007       0.000      0.00094
   9.88005       0.001      0.00094
   9.89004       0.002      0.00094
   9.90003      -0.001      0.00094
   9.91002      -0.000      0.00094
   9.92001      -0.002      0.00094
   9.93000      -0.002      0.00094
   9.93999      -0.000      0.00094
   9.94998       0.003      0.00095
   9.95997       0.003      0.00095
   9.96995       0.005      0.00095
   9.97994       0.004      0.00095
   9.98993       0.005      0.00095
   9.99992       0.003      0.00095
  10.00991       0.004      0.00095
  10.01990       0.007      0.00096
  10.02989       0.005      0.00096
  10.03988       0.006      0.00096
  10.04987       0.008      0.00096
  10.05986       0.006      0.00096
  10.06984       0.007      0.00096
  10.07983       0.007      0.00096
  10.08982       0.007      0.00096
  10.09981       0.006      0.00096
  10.10980       0.006      0.00096
  10.11979       0.004      0.00096
  10.12978       0.004      0.00096
  10.13977       0.002      0.00096
  10.14976       0.001      0.00096
  10.15974      -0.001      0.00096
  10.16973       0.000      0.00096
  10.17972       0.001      0.00096
  10.18971       0.003      0.00097
  10.19970       0.003      0.00097
  10.20969       0.005      0.00097
  10.21968       0.006      0.00097
  10.22967       0.004      0.00097
  10.23966       0.005      0.00097
  10.24964       0.005      0.00097
  10.25963       0.004      0.00097
  10.26962       0.006      0.00097
  10.27961       0.007      0.00097
  10.28960       0.008      0.00097
  10.29959       0.011      0.00097
  10.30958       0.012      0.00097
  10.31957       0.015      0.00097
  10.32956       0.015      0.00097
  10.33955       0.014      0.00097
  10.34953       0.015      0.00097
  10.35952       0.013      0.00098
  10.36951       0.010      0.00097
  10.37950       0.010      0.00097
  10.38949       0.007      0.00097
  10.39948       0.005      0.00097
  10.40947       0.005      0.00097
  10.41946       0.004      0.00097
  10.42945       0.002      0.00097
  10.43943       0.001      0.00098
  10.44942      -0.000      0.00097
  10.45941      -0.001      0.00097
  10.46940      -0.002      0.00098
  10.47939      -0.003      0.00097
  10.48938      -0.000      0.00098
  10.49937      -0.004      0.00098
  10.50936      -0.004      0.00097
  10.51935      -0.002      0.00098
  10.52933      -0.002      0.00098
  10.53932      -0.003      0.00098
  10.54931       0.001      0.00098
  10.55930       0.003      0.00098
  10.56929       0.006      0.00098
  10.57928       0.007      0.00098
  10.58927       0.010      0.00098
  10.59926       0.013      0.00098
  10.60925       0.013      0.00098
  10.61924       0.016      0.00098
  10.62922       0.017      0.00098
  10.63921       0.011      0.00098
  10.64920       0.007      0.00098
  10.65919       0.007      0.00098
  10.66918       0.002      0.00098
  10.67917      -0.001      0.00098
  10.68916      -0.001      0.00098
  10.69915      -0.000      0.00098
  10.70914       0.001      0.00098
  10.71912       0.001      0.00098
  10.72911       0.004      0.00098
  10.73910       0.007      0.00098
  10.74909       0.010      0.00098
  10.75908       0.011      0.00099
  10.76907       0.014      0.00099
  10.77906       0.013      0.00099
  10.78905       0.015      0.00100
  10.79904       0.015      0.00100
  10.80902       0.015      0.00100
  10.81901       0.016      0.00100
  10.82900       0.016      0.00101
  10.83899       0.015      0.00101
  10.84898       0.016      0.00101
  10.85897       0.014      0.00101
  10.86896       0.012      0.00101
  10.87895       0.015      0.00101
  10.88894       0.012      0.00101
  10.89893       0.011      0.00101
  10.90891       0.014      0.00101
  10.91890       0.012      0.00101
  10.92889       0.012      0.00101
  10.93888       0.014      0.00101
  10.94887       0.011      0.00101
  10.95886       0.010      0.00102
  10.96885       0.011      0.00102
  10.97884       0.011      0.00102
  10.98883       0.012      0.00102
  10.99881       0.013      0.00102
  11.00880       0.013      0.00102
  11.01879       0.017      0.00102
  11.02878       0.016      0.00102
  11.03877       0.016      0.00103
  11.04876       0.016      0.00103
  11.05875       0.015      0.00103
  11.06874       0.014      0.00104
  11.07873       0.012      0.00104
  11.08872       0.008      0.00105
  11.09870       0.010      0.00105
  11.10869       0.012      0.00105
  11.11868       0.012      0.00105
  11.12867       0.014      0.00106
  11.13866       0.013      0.00106
  11.14865       0.013      0.00106
  11.15864       0.010      0.00106
  11.16863       0.011      0.00106
  11.17862       0.012      0.00107
  11.18860       0.012      0.00107
  11.19859       0.009      0.00107
  11.20858       0.008      0.00107
  11.21857       0.003      0.00107
  11.22856      -0.001      0.00107
  11.23855      -0.002      0.00108
  11.24854      -0.005      0.00108
  11.25853      -0.006      0.00108
  11.26852      -0.005      0.00108
  11.27850      -0.005      0.00108
  11.28849      -0.005      0.00109
  11.29848      -0.003      0.00109
  11.30847       0.000      0.00109
  11.31846       0.004      0.00109
  11.32845       0.005      0.00110
  11.33844       0.007      0.00110
  11.34843       0.008      0.00110
  11.35842       0.005      0.00110
  11.36841       0.004      0.00110
  11.37839       0.003      0.00111
  11.38838      -0.000      0.00111
  11.39837       0.003      0.00111
  11.40836       0.004      0.00111
  11.41835       0.003      0.00111
  11.42834       0.004      0.00112
  11.43833       0.002      0.00112
  11.44832      -0.002      0.00112
  11.45831      -0.000      0.00112
  11.46829      -0.003      0.00112
  11.47828      -0.001      0.00112
  11.48827      -0.001      0.00113
  11.49826      -0.001      0.00113
  11.50825      -0.001      0.00113
  11.51824      -0.003      0.00113
  11.52823      -0.005      0.00113
  11.53822      -0.003      0.00114
  11.54821      -0.003      0.00114
  11.55819      -0.001      0.00114
  11.56818       0.005      0.00114
  11.57817       0.003      0.00114
  11.58816       0.005      0.00115
  11.59815       0.009      0.00115
  11.60814       0.007      0.00115
  11.61813       0.009      0.00115
  11.62812       0.013      0.00116
  11.63811       0.014      0.00116
  11.64810       0.017      0.00116
  11.65808       0.016      0.00116
  11.66807       0.014      0.00116
  11.67806       0.017      0.00116
  11.68805       0.013      0.00117
  11.69804       0.013      0.00117
  11.70803       0.015      0.00117
  11.71802       0.012      0.00117
  11.72801       0.008      0.00117
  11.73800       0.010      0.00117
  11.74798       0.006      0.00117
  11.75797       0.005      0.00118
  11.76796       0.007      0.00118
  11.77795       0.007      0.00118
  11.78794       0.009      0.00118
  11.79793       0.009      0.00118
  11.80792       0.010      0.00119
  11.81791       0.011      0.00119
  11.82790       0.011      0.00119
  11.83789       0.011      0.00119
  11.84787       0.011      0.00119
  11.85786       0.012      0.00120
  11.86785       0.015      0.00120
  11.87784       0.011      0.00120
  11.88783       0.011      0.00120
  11.89782       0.016      0.00120
  11.90781       0.016      0.00120
  11.91780       0.014      0.00121
  11.92779       0.014      0.00121
  11.93777       0.008      0.00121
  11.94776       0.004      0.00121
  11.95775      -0.002      0.00121
  11.96774      -0.002      0.00121
  11.97773      -0.003      0.00121
  11.98772      -0.006      0.00121
  11.99771      -0.006      0.00122
  12.00770      -0.005      0.00122
  12.01769      -0.010      0.00122
  12.02767      -0.008      0.00122
  12.03766      -0.006      0.00122
  12.04765      -0.005      0.00122
  12.05764       0.004      0.00123
  12.06763       0.006      0.00123
  12.07762       0.008      0.00123
  12.08761       0.015      0.00124
  12.09760       0.016      0.00124
  12.10759       0.018      0.00124
  12.11758       0.023      0.00125
  12.12756       0.021      0.00125
  12.13755       0.022      0.00125
  12.14754       0.022      0.00125
  12.15753       0.011      0.00125
  12.16752       0.012      0.00125
  12.17751       0.011      0.00125
  12.18750       0.012      0.00125
  12.19749       0.014      0.00126
  12.20748       0.013      0.00126
  12.21746       0.012      0.00126
  12.22745       0.012      0.00126
  12.23744       0.007      0.00126
  12.24743       0.012      0.00127
  12.25742       0.017      0.00127
  12.26741       0.017      0.00127
  12.27740       0.025      0.00127
  12.28739       0.024      0.00128
  12.29738       0.017      0.00128
  12.30736       0.020      0.00128
  12.31735       0.016      0.00128
  12.32734       0.011      0.00128
  12.33733       0.012      0.00128
  12.34732       0.010      0.00128
  12.35731       0.008      0.00128
  12.36730       0.008      0.00129
  12.37729       0.003      0.00129
  12.38728       0.006      0.00129
  12.39727       0.006      0.00129
  12.40725       0.007      0.00129
  12.41724       0.010      0.00130
  12.42723       0.010      0.00130
  12.43722       0.011      0.00130
  12.44721       0.015      0.00130
  12.45720       0.014      0.00131
  12.46719       0.012      0.00130
  12.47718       0.011      0.00131
  12.48717       0.007      0.00131
  12.49715       0.007      0.00131
  12.50714       0.002      0.00131
  12.51713       0.006      0.00131
  12.52712       0.009      0.00132
  12.53711       0.004      0.00132
  12.54710       0.005      0.00132
  12.55709       0.005      0.00132
  12.56708      -0.002      0.00132
  12.57707      -0.001      0.00133
  12.58705       0.002      0.00133
  12.59704      -0.005      0.00133
  12.60703      -0.004      0.00133
  12.61702      -0.008      0.00133
  12.62701      -0.014      0.00133
  12.63700      -0.015      0.00133
  12.64699      -0.018      0.00133
  12.65698      -0.016      0.00134
  12.66697       0.000      0.00134
  12.67696       0.006      0.00135
  12.68694       0.017      0.00136
  12.69693       0.035      0.00137
  12.70692       0.044      0.00138
  12.71691       0.054      0.00138
  12.72690       0.065      0.00139
  12.73689       0.078      0.00140
  12.74688       0.089      0.00141
  12.75687       0.099      0.00142
  12.76686       0.107      0.00143
  12.77684       0.113      0.00143
  12.78683       0.119      0.00144
  12.79682       0.124      0.00145
  12.80681       0.130      0.00145
  12.81680       0.135      0.00146
  12.82679       0.140      0.00146
  12.83678       0.145      0.00147
  12.84677       0.150      0.00148
  12.85676       0.154      0.00148
  12.86675       0.159      0.00149
  12.87673       0.164      0.00150
  12.88672       0.170      0.00150
  12.89671       0.176      0.00151
  12.90670       0.183      0.00152
  12.91669       0.190      0.00152
  12.92668       0.197      0.00153
  12.93667       0.205      0.00153
  12.94666       0.211      0.00154
  12.95665       0.217      0.00155
  12.96663       0.221      0.00155
  12.97662       0.223      0.00156
  12.98661       0.224      0.00156
  12.99660       0.223      0.00157
  13.00659       0.221      0.00157
  13.01658       0.218      0.00158
  13.02657       0.213      0.00158
  13.03656       0.206      0.00159
  13.04655       0.198      0.00159
  13.05653       0.188      0.00159
  13.06652       0.178      0.00159
  13.07651       0.167      0.00160
  13.08650       0.156      0.00160
  13.09649       0.146      0.00161
  13.10648       0.138      0.00161
  13.11647       0.131      0.00161
  13.12646       0.124      0.00162
  13.13645       0.119      0.00162
  13.14644       0.115      0.00163
  13.15642       0.111      0.00163
  13.16641       0.108      0.00164
  13.17640       0.106      0.00164
  13.18639       0.104      0.00165
  13.19638       0.103      0.00165
  13.20637       0.101      0.00166
  13.21636       0.100      0.00166
  13.22635       0.098      0.00167
  13.23634       0.096      0.00167
  13.24632       0.094      0.00168
  13.25631       0.092      0.00168
  13.26630       0.091      0.00169
  13.27629       0.090      0.00169
  13.28628       0.089      0.00170
  13.29627       0.088      0.00170
  13.30626       0.086      0.00171
  13.31625       0.084      0.00171
  13.32624       0.084      0.00172
  13.33622       0.084      0.00172
  13.34621       0.086      0.00173
  13.35620       0.088      0.00174
  13.36619       0.089      0.00174
  13.37618       0.090      0.00175
  13.38617       0.089      0.00175
  13.39616       0.088      0.00176
  13.40615       0.086      0.00177
  13.41614       0.086      0.00177
  13.42613       0.086      0.00177
  13.43611       0.087      0.00178
  13.44610       0.090      0.00179
  13.45609       0.094      0.00179
  13.46608       0.097      0.00180
  13.47607       0.099      0.00181
  13.48606       0.099      0.00181
  13.49605       0.099      0.00182
  13.50604       0.097      0.00182
  13.51603       0.095      0.00183
  13.52601       0.093      0.00184
  13.53600       0.092      0.00184
  13.54599       0.090      0.00185
  13.55598       0.089      0.00185
  13.56597       0.088      0.00186
  13.57596       0.088      0.00186
  13.58595       0.088      0.00187
  13.59594       0.091      0.00188
  13.60593       0.093      0.00188
  13.61592       0.096      0.00189
  13.62590       0.100      0.00190
  13.63589       0.104      0.00190
  13.64588       0.110      0.00191
  13.65587       0.117      0.00192
  13.66586       0.126      0.00193
  13.67585       0.136      0.00193
  13.68584       0.149      0.00195
  13.69583       0.163      0.00196
  13.70582       0.179      0.00197
  13.71580       0.199      0.00198
  13.72579       0.222      0.00199
  13.73578       0.251      0.00200
  13.74577       0.286      0.00201
  13.75576       0.329      0.00203
  13.76575       0.382      0.00205
  13.77574       0.446      0.00206
  13.78573       0.527      0.00209
  13.79572       0.624      0.00212
  13.80570       0.737      0.00215
  13.81569       0.867      0.00218
  13.82568       1.018      0.00221
  13.83567       1.190      0.00225
  13.84566       1.377      0.00230
  13.85565       1.588      0.00234
  13.86564       1.821      0.00239
  13.87563       2.076      0.00245
  13.88562       2.350      0.00251
  13.89561       2.637      0.00257
  13.90559       2.934      0.00262
  13.91558       3.228      0.00268
  13.92557       3.515      0.00274
  13.93556       3.783      0.00279
  13.94555       4.032      0.00284
  13.95554       4.249      0.00289
  13.96553       4.436      0.00293
  13.97552       4.585      0.00296
  13.98551       4.696      0.00299
  13.99549       4.761      0.00301
  14.00548       4.782      0.00302
  14.01547       4.760      0.00303
  14.02546       4.694      0.00303
  14.03545       4.591      0.00303
  14.04544       4.455      0.00302
  14.05543       4.287      0.00300
  14.06542       4.093      0.00298
  14.07541       3.883      0.00296
  14.08539       3.656      0.00293
  14.09538       3.417      0.00290
  14.10537       3.172      0.00286
  14.11536       2.931      0.00283
  14.12535       2.693      0.00280
  14.13534       2.465      0.00276
  14.14533       2.247      0.00274
  14.15532       2.044      0.00271
  14.16531       1.854      0.00268
  14.17530       1.679      0.00265
  14.18528       1.517      0.00263
  14.19527       1.370      0.00262
  14.20526       1.240      0.00260
  14.21525       1.128      0.00258
  14.22524       1.035      0.00257
  14.23523       0.961      0.00257
  14.24522       0.907      0.00257
  14.25521       0.875      0.00257
  14.26520       0.863      0.00258
  14.27518       0.876      0.00259
  14.28517       0.917      0.00261
  14.29516       0.988      0.00264
  14.30515       1.091      0.00267
  14.31514       1.235      0.00272
  14.32513       1.422      0.00277
  14.33512       1.649      0.00283
  14.34511       1.918      0.00290
  14.35510       2.234      0.00298
  14.36508       2.591      0.00307
  14.37507       2.978      0.00316
  14.38506       3.389      0.00326
  14.39505       3.826      0.00335
  14.40504       4.258      0.00345
  14.41503       4.684      0.00355
  14.42502       5.080      0.00364
  14.43501       5.444      0.00371
  14.44500       5.753      0.00380
  14.45499       5.996      0.00386
  14.46497       6.169      0.00390
  14.47496       6.257      0.00394
  14.48495       6.262      0.00396
  14.49494       6.179      0.00397
  14.50493       6.009      0.00394
  14.51492       5.766      0.00392
  14.52491       5.449      0.00388
  14.53490       5.079      0.00382
  14.54489       4.666      0.00376
  14.55487       4.242      0.00368
  14.56486       3.798      0.00361
  14.57485       3.356      0.00353
  14.58484       2.942      0.00346
  14.59483       2.555      0.00338
  14.60482       2.186      0.00332
  14.61481       1.859      0.00325
  14.62480       1.569      0.00320
  14.63479       1.315      0.00314
  14.64478       1.087      0.00310
  14.65476       0.894      0.00306
  14.66475       0.731      0.00304
  14.67474       0.593      0.00300
  14.68473       0.478      0.00299
  14.69472       0.385      0.00297
  14.70471       0.312      0.00297
  14.71470       0.255      0.00294
  14.72469       0.212      0.00295
  14.73468       0.180      0.00296
  14.74466       0.154      0.00295
  14.75465       0.137      0.00295
  14.76464       0.120      0.00296
  14.77463       0.106      0.00297
  14.78462       0.096      0.00297
  14.79461       0.087      0.00298
  14.80460       0.080      0.00299
  14.81459       0.075      0.00299
  14.82458       0.073      0.00300
  14.83456       0.073      0.00301
  14.84455       0.072      0.00302
  14.85454       0.074      0.00304
  14.86453       0.075      0.00304
  14.87452       0.076      0.00305
  14.88451       0.077      0.00306
  14.89450       0.078      0.00308
  14.90449       0.081      0.00309
  14.91448       0.088      0.00309
  14.92447       0.100      0.00312
  14.93445       0.120      0.00313
  14.94444       0.145      0.00314
  14.95443       0.177      0.00317
  14.96442       0.213      0.00320
  14.97441       0.254      0.00321
  14.98440       0.299      0.00324
  14.99439       0.353      0.00327
  15.00438       0.416      0.00331
  15.01437       0.497      0.00332
  15.02435       0.595      0.00338
  15.03434       0.719      0.00343
  15.04433       0.870      0.00348
  15.05432       1.048      0.00355
  15.06431       1.254      0.00363
  15.07430       1.497      0.00371
  15.08429       1.760      0.00380
  15.09428       2.049      0.00389
  15.10427       2.372      0.00399
  15.11425       2.714      0.00410
  15.12424       3.074      0.00422
  15.13423       3.456      0.00433
  15.14422       3.858      0.00444
  15.15421       4.255      0.00457
  15.16420       4.650      0.00469
  15.17419       5.037      0.00478
  15.18418       5.389      0.00490
  15.19417       5.706      0.00500
  15.20416       5.985      0.00506
  15.21414       6.207      0.00515
  15.22413       6.375      0.00522
  15.23412       6.485      0.00525
  15.24411       6.530      0.00529
  15.25410       6.516      0.00532
  15.26409       6.442      0.00530
  15.27408       6.316      0.00530
  15.28407       6.144      0.00530
  15.29406       5.927      0.00524
  15.30404       5.677      0.00522
  15.31403       5.396      0.00517
  15.32402       5.083      0.00511
  15.33401       4.756      0.00505
  15.34400       4.416      0.00499
  15.35399       4.071      0.00491
  15.36398       3.734      0.00484
  15.37397       3.404      0.00477
  15.38396       3.087      0.00470
  15.39395       2.784      0.00462
  15.40393       2.500      0.00457
  15.41392       2.235      0.00450
  15.42391       1.984      0.00444
  15.43390       1.759      0.00439
  15.44389       1.549      0.00435
  15.45388       1.362      0.00429
  15.46387       1.193      0.00426
  15.47386       1.044      0.00423
  15.48385       0.912      0.00420
  15.49383       0.799      0.00418
  15.50382       0.701      0.00417
  15.51381       0.618      0.00415
  15.52380       0.547      0.00415
  15.53379       0.488      0.00415
  15.54378       0.437      0.00415
  15.55377       0.393      0.00415
  15.56376       0.357      0.00416
  15.57375       0.327      0.00417
  15.58373       0.304      0.00418
  15.59372       0.286      0.00420
  15.60371       0.275      0.00422
  15.61370       0.268      0.00424
  15.62369       0.267      0.00426
  15.63368       0.272      0.00429
  15.64367       0.282      0.00432
  15.65366       0.301      0.00435
  15.66365       0.328      0.00438
  15.67364       0.366      0.00443
  15.68362       0.415      0.00448
  15.69361       0.477      0.00453
  15.70360       0.556      0.00459
  15.71359       0.655      0.00467
  15.72358       0.779      0.00475
  15.73357       0.933      0.00484
  15.74356       1.124      0.00496
  15.75355       1.354      0.00508
  15.76354       1.627      0.00523
  15.77352       1.946      0.00540
  15.78351       2.313      0.00557
  15.79350       2.727      0.00578
  15.80349       3.191      0.00600
  15.81348       3.698      0.00623
  15.82347       4.254      0.00648
  15.83346       4.842      0.00673
  15.84345       5.439      0.00700
  15.85344       6.056      0.00726
  15.86342       6.647      0.00752
  15.87341       7.215      0.00775
  15.88340       7.729      0.00799
  15.89339       8.168      0.00819
  15.90338       8.526      0.00838
  15.91337       8.790      0.00853
  15.92336       8.942      0.00865
  15.93335       8.984      0.00875
  15.94334       8.903      0.00879
  15.95333       8.710      0.00882
  15.96331       8.407      0.00879
  15.97330       8.002      0.00875
  15.98329       7.520      0.00866
  15.99328       6.967      0.00854
  16.00327       6.379      0.00842
  16.01326       5.770      0.00827
  16.02325       5.153      0.00810
  16.03324       4.550      0.00794
  16.04323       3.979      0.00777
  16.05321       3.441      0.00762
  16.06320       2.954      0.00747
  16.07319       2.512      0.00733
  16.08318       2.121      0.00721
  16.09317       1.776      0.00711
  16.10316       1.480      0.00704
  16.11315       1.226      0.00698
  16.12314       1.010      0.00695
  16.13313       0.831      0.00693
  16.14311       0.682      0.00692
  16.15310       0.561      0.00696
  16.16309       0.465      0.00698
  16.17308       0.385      0.00704
  16.18307       0.328      0.00709
  16.19306       0.282      0.00719
  16.20305       0.249      0.00728
  16.21304       0.227      0.00739
  16.22303       0.213      0.00753
  16.23302       0.203      0.00763
  16.24300       0.197      0.00781
  16.25299       0.195      0.00795
  16.26298       0.198      0.00812
  16.27297       0.201      0.00830
  16.28296       0.205      0.00850
  16.29295       0.202      0.00871
  16.30294       0.193      0.00891
  16.31293       0.173      0.00913
  16.32292       0.148      0.00939
  16.33290       0.124      0.00963
  16.34289       0.103      0.00993
  16.35288       0.092      0.01023
  16.36287       0.089      0.01064
  16.37286       0.097      0.01108
  16.38285       0.107      0.01156
  16.39284       0.123      0.01217
  16.40283       0.137      0.01278
  16.41282       0.154      0.01353
  16.42281       0.170      0.01421
  16.43279       0.186      0.01488
  16.44278       0.201      0.01557
  16.45277       0.210      0.01623
  16.46276       0.211      0.01699
  16.47275       0.198      0.01786
  16.48274       0.170      0.01884
  16.49273       0.130      0.01997
  16.50272       0.081      0.02138
  16.51271       0.034      0.02325
  16.52269      -0.004      0.02560
  16.53268      -0.028      0.02905
  16.54267      -0.032      0.03513
  16.55266      -0.026      0.04415
  16.56265      -0.013      0.06464
  16.57264      -0.012      0.10183
  16.58263      -0.024      0.27376
