  1.54056
   4.00922      -0.005      0.00112
   4.01922      -0.004      0.00112
   4.02922      -0.001      0.00112
   4.03921      -0.001      0.00112
   4.04921       0.000      0.00112
   4.05920       0.002      0.00112
   4.06920       0.003      0.00112
   4.07919       0.002      0.00112
   4.08919       0.003      0.00111
   4.09918       0.003      0.00111
   4.10918       0.004      0.00111
   4.11918       0.004      0.00111
   4.12917       0.006      0.00111
   4.13917       0.009      0.00111
   4.14916       0.010      0.00111
   4.15916       0.012      0.00111
   4.16915       0.015      0.00111
   4.17915       0.016      0.00111
   4.18914       0.017      0.00110
   4.19914       0.021      0.00111
   4.20914       0.023      0.00110
   4.21913       0.025      0.00111
   4.22913       0.029      0.00110
   4.23912       0.031      0.00110
   4.24912       0.029      0.00110
   4.25911       0.030      0.00110
   4.26911       0.029      0.00110
   4.27910       0.029      0.00110
   4.28910       0.028      0.00109
   4.29910       0.028      0.00110
   4.30909       0.029      0.00109
   4.31909       0.028      0.00109
   4.32908       0.026      0.00109
   4.33908       0.026      0.00109
   4.34907       0.024      0.00108
   4.35907       0.023      0.00109
   4.36907       0.022      0.00108
   4.37906       0.021      0.00108
   4.38906       0.021      0.00108
   4.39905       0.023      0.00108
   4.40905       0.020      0.00107
   4.41904       0.019      0.00108
   4.42904       0.021      0.00108
   4.43903       0.020      0.00107
   4.44903       0.019      0.00107
   4.45903       0.019      0.00107
   4.46902       0.019      0.00107
   4.47902       0.018      0.00107
   4.48901       0.018      0.00107
   4.49901       0.018      0.00107
   4.50900       0.019      0.00107
   4.51900       0.019      0.00106
   4.52899       0.022      0.00106
   4.53899       0.024      0.00106
   4.54899       0.024      0.00106
   4.55898       0.025      0.00106
   4.56898       0.027      0.00106
   4.57897       0.025      0.00106
   4.58897       0.024      0.00106
   4.59896       0.023      0.00106
   4.60896       0.021      0.00105
   4.61895       0.020      0.00105
   4.62895       0.021      0.00105
   4.63895       0.020      0.00105
   4.64894       0.018      0.00105
   4.65894       0.017      0.00105
   4.66893       0.015      0.00105
   4.67893       0.013      0.00104
   4.68892       0.011      0.00104
   4.69892       0.010      0.00104
   4.70891       0.012      0.00104
   4.71891       0.013      0.00104
   4.72891       0.015      0.00104
   4.73890       0.017      0.00104
   4.74890       0.017      0.00104
   4.75889       0.016      0.00104
   4.76889       0.017      0.00104
   4.77888       0.015      0.00103
   4.78888       0.014      0.00103
   4.79887       0.014      0.00103
   4.80887       0.015      0.00103
   4.81887       0.016      0.00103
   4.82886       0.017      0.00103
   4.83886       0.018      0.00103
   4.84885       0.019      0.00103
   4.85885       0.020      0.00103
   4.86884       0.019      0.00103
   4.87884       0.019      0.00102
   4.88883       0.017      0.00102
   4.89883       0.017      0.00102
   4.90883       0.017      0.00102
   4.91882       0.016      0.00102
   4.92882       0.014      0.00102
   4.93881       0.013      0.00102
   4.94881       0.012      0.00101
   4.95880       0.010      0.00101
   4.96880       0.010      0.00101
   4.97879       0.009      0.00101
   4.98879       0.009      0.00101
   4.99879       0.011      0.00101
   5.00878       0.009      0.00101
   5.01878       0.009      0.00101
   5.02877       0.008      0.00101
   5.03877       0.008      0.00101
   5.04876       0.009      0.00101
   5.05876       0.009      0.00100
   5.06876       0.010      0.00100
   5.07875       0.012      0.00100
   5.08875       0.014      0.00100
   5.09874       0.015      0.00100
   5.10874       0.016      0.00100
   5.11873       0.018      0.00100
   5.12873       0.018      0.00100
   5.13872       0.019      0.00100
   5.14872       0.018      0.00100
   5.15872       0.016      0.00100
   5.16871       0.014      0.00099
   5.17871       0.010      0.00099
   5.18870       0.009      0.00099
   5.19870       0.005      0.00099
   5.20869       0.003      0.00099
   5.21869       0.004      0.00099
   5.22868       0.005      0.00099
   5.23868       0.004      0.00099
   5.24868       0.006      0.00099
   5.25867       0.008      0.00098
   5.26867       0.009      0.00098
   5.27866       0.010      0.00098
   5.28866       0.012      0.00098
   5.29865       0.013      0.00098
   5.30865       0.016      0.00098
   5.31864       0.017      0.00098
   5.32864       0.017      0.00098
   5.33864       0.018      0.00098
   5.34863       0.017      0.00098
   5.35863       0.016      0.00098
   5.36862       0.014      0.00098
   5.37862       0.014      0.00097
   5.38861       0.014      0.00098
   5.39861       0.013      0.00097
   5.40860       0.013      0.00097
   5.41860       0.014      0.00097
   5.42860       0.014      0.00097
   5.43859       0.013      0.00097
   5.44859       0.014      0.00097
   5.45858       0.014      0.00097
   5.46858       0.012      0.00097
   5.47857       0.013      0.00097
   5.48857       0.011      0.00096
   5.49856       0.008      0.00096
   5.50856       0.008      0.00096
   5.51856       0.007      0.00096
   5.52855       0.007      0.00096
   5.53855       0.007      0.00096
   5.54854       0.007      0.00096
   5.55854       0.008      0.00096
   5.56853       0.006      0.00095
   5.57853       0.006      0.00095
   5.58852       0.007      0.00095
   5.59852       0.006      0.00095
   5.60852       0.006      0.00095
   5.61851       0.007      0.00095
   5.62851       0.005      0.00095
   5.63850       0.003      0.00095
   5.64850       0.002      0.00095
   5.65849       0.002      0.00095
   5.66849       0.001      0.00095
   5.67848       0.003      0.00095
   5.68848       0.005      0.00095
   5.69848       0.005      0.00095
   5.70847       0.007      0.00095
   5.71847       0.008      0.00094
   5.72846       0.009      0.00095
   5.73846       0.010      0.00094
   5.74845       0.011      0.00094
   5.75845       0.012      0.00094
   5.76845       0.013      0.00094
   5.77844       0.013      0.00094
   5.78844       0.016      0.00094
   5.79843       0.016      0.00094
   5.80843       0.015      0.00094
   5.81842       0.016      0.00094
   5.82842       0.015      0.00094
   5.83841       0.014      0.00094
   5.84841       0.014      0.00094
   5.85841       0.013      0.00094
   5.86840       0.012      0.00093
   5.87840       0.014      0.00093
   5.88839       0.014      0.00093
   5.89839       0.015      0.00093
   5.90838       0.016      0.00093
   5.91838       0.018      0.00093
   5.92837       0.020      0.00093
   5.93837       0.021      0.00093
   5.94837       0.020      0.00093
   5.95836       0.020      0.00093
   5.96836       0.019      0.00093
   5.97835       0.017      0.00093
   5.98835       0.016      0.00093
   5.99834       0.017      0.00092
   6.00834       0.016      0.00092
   6.01833       0.017      0.00092
   6.02833       0.019      0.00092
   6.03833       0.022      0.00092
   6.04832       0.026      0.00092
   6.05832       0.027      0.00092
   6.06831       0.031      0.00092
   6.07831       0.033      0.00092
   6.08830       0.035      0.00092
   6.09830       0.035      0.00092
   6.10829       0.038      0.00092
   6.11829       0.039      0.00092
   6.12829       0.041      0.00092
   6.13828       0.045      0.00092
   6.14828       0.047      0.00092
   6.15827       0.051      0.00092
   6.16827       0.055      0.00092
   6.17826       0.060      0.00092
   6.18826       0.066      0.00092
   6.19825       0.072      0.00092
   6.20825       0.080      0.00092
   6.21825       0.090      0.00093
   6.22824       0.102      0.00093
   6.23824       0.117      0.00093
   6.24823       0.133      0.00093
   6.25823       0.153      0.00094
   6.26822       0.178      0.00094
   6.27822       0.211      0.00095
   6.28821       0.254      0.00096
   6.29821       0.316      0.00097
   6.30821       0.398      0.00098
   6.31820       0.511      0.00101
   6.32820       0.667      0.00104
   6.33819       0.870      0.00107
   6.34819       1.146      0.00112
   6.35818       1.499      0.00119
   6.36818       1.944      0.00126
   6.37817       2.492      0.00134
   6.38817       3.148      0.00143
   6.39817       3.905      0.00154
   6.40816       4.761      0.00164
   6.41816       5.677      0.00175
   6.42815       6.632      0.00185
   6.43815       7.576      0.00195
   6.44814       8.448      0.00204
   6.45814       9.189      0.00211
   6.46814       9.756      0.00216
   6.47813      10.100      0.00219
   6.48813      10.197      0.00219
   6.49812      10.031      0.00218
   6.50812       9.634      0.00214
   6.51811       9.019      0.00208
   6.52811       8.233      0.00200
   6.53810       7.334      0.00191
   6.54810       6.362      0.00180
   6.55810       5.396      0.00170
   6.56809       4.470      0.00158
   6.57809       3.618      0.00148
   6.58808       2.864      0.00137
   6.59808       2.230      0.00128
   6.60807       1.700      0.00120
   6.61807       1.280      0.00112
   6.62806       0.957      0.00107
   6.63806       0.709      0.00102
   6.64806       0.528      0.00098
   6.65805       0.397      0.00096
   6.66805       0.303      0.00094
   6.67804       0.236      0.00092
   6.68804       0.189      0.00091
   6.69803       0.153      0.00090
   6.70803       0.128      0.00090
   6.71802       0.110      0.00089
   6.72802       0.094      0.00089
   6.73802       0.082      0.00089
   6.74801       0.072      0.00088
   6.75801       0.064      0.00088
   6.76800       0.057      0.00088
   6.77800       0.050      0.00088
   6.78799       0.044      0.00087
   6.79799       0.039      0.00087
   6.80798       0.036      0.00087
   6.81798       0.032      0.00087
   6.82798       0.029      0.00087
   6.83797       0.027      0.00087
   6.84797       0.025      0.00087
   6.85796       0.023      0.00087
   6.86796       0.024      0.00087
   6.87795       0.024      0.00086
   6.88795       0.024      0.00086
   6.89794       0.024      0.00086
   6.90794       0.024      0.00086
   6.91794       0.023      0.00086
   6.92793       0.022      0.00086
   6.93793       0.021      0.00086
   6.94792       0.019      0.00086
   6.95792       0.016      0.00086
   6.96791       0.015      0.00086
   6.97791       0.013      0.00085
   6.98790       0.011      0.00085
   6.99790       0.011      0.00085
   7.00790       0.011      0.00085
   7.01789       0.011      0.00085
   7.02789       0.009      0.00085
   7.03788       0.010      0.00085
   7.04788       0.010      0.00085
   7.05787       0.009      0.00085
   7.06787       0.008      0.00085
   7.07787       0.009      0.00085
   7.08786       0.008      0.00085
   7.09786       0.006      0.00084
   7.10785       0.006      0.00084
   7.11785       0.004      0.00084
   7.12784       0.002      0.00084
   7.13784       0.001      0.00084
   7.14783       0.001      0.00084
   7.15783      -0.000      0.00084
   7.16783       0.001      0.00084
   7.17782       0.000      0.00084
   7.18782       0.002      0.00084
   7.19781       0.003      0.00084
   7.20781       0.005      0.00084
   7.21780       0.008      0.00084
   7.22780       0.010      0.00084
   7.23779       0.012      0.00084
   7.24779       0.014      0.00084
   7.25779       0.014      0.00084
   7.26778       0.013      0.00084
   7.27778       0.012      0.00084
   7.28777       0.011      0.00084
   7.29777       0.009      0.00083
   7.30776       0.008      0.00083
   7.31776       0.006      0.00083
   7.32775       0.004      0.00083
   7.33775       0.003      0.00083
   7.34775       0.001      0.00083
   7.35774      -0.002      0.00083
   7.36774      -0.003      0.00083
   7.37773      -0.003      0.00083
   7.38773      -0.001      0.00083
   7.39772      -0.000      0.00083
   7.40772       0.002      0.00083
   7.41771       0.004      0.00083
   7.42771       0.004      0.00083
   7.43771       0.005      0.00082
   7.44770       0.006      0.00082
   7.45770       0.007      0.00083
   7.46769       0.008      0.00082
   7.47769       0.009      0.00082
   7.48768       0.008      0.00082
   7.49768       0.007      0.00082
   7.50767       0.006      0.00082
   7.51767       0.005      0.00082
   7.52767       0.003      0.00082
   7.53766       0.003      0.00082
   7.54766       0.003      0.00082
   7.55765       0.003      0.00082
   7.56765       0.002      0.00082
   7.57764       0.001      0.00082
   7.58764       0.000      0.00082
   7.59763      -0.001      0.00082
   7.60763      -0.002      0.00082
   7.61763      -0.001      0.00081
   7.62762      -0.000      0.00082
   7.63762       0.002      0.00081
   7.64761       0.003      0.00081
   7.65761       0.006      0.00081
   7.66760       0.008      0.00081
   7.67760       0.011      0.00081
   7.68759       0.012      0.00081
   7.69759       0.015      0.00081
   7.70759       0.015      0.00081
   7.71758       0.014      0.00081
   7.72758       0.013      0.00081
   7.73757       0.010      0.00081
   7.74757       0.009      0.00081
   7.75756       0.007      0.00081
   7.76756       0.006      0.00081
   7.77756       0.005      0.00081
   7.78755       0.004      0.00081
   7.79755       0.004      0.00081
   7.80754       0.004      0.00081
   7.81754       0.004      0.00081
   7.82753       0.004      0.00080
   7.83753       0.005      0.00080
   7.84752       0.007      0.00080
   7.85752       0.007      0.00080
   7.86752       0.007      0.00080
   7.87751       0.007      0.00080
   7.88751       0.005      0.00080
   7.89750       0.004      0.00080
   7.90750       0.002      0.00080
   7.91749       0.001      0.00080
   7.92749       0.000      0.00080
   7.93748       0.002      0.00080
   7.94748       0.003      0.00080
   7.95748       0.004      0.00080
   7.96747       0.005      0.00080
   7.97747       0.006      0.00080
   7.98746       0.007      0.00080
   7.99746       0.008      0.00080
   8.00745       0.007      0.00080
   8.01745       0.006      0.00080
   8.02744       0.005      0.00079
   8.03744       0.004      0.00079
   8.04744       0.001      0.00079
   8.05743      -0.000      0.00079
   8.06743       0.002      0.00079
   8.07742       0.003      0.00079
   8.08742       0.004      0.00079
   8.09741       0.008      0.00079
   8.10741       0.009      0.00079
   8.11740       0.010      0.00079
   8.12740       0.012      0.00079
   8.13740       0.012      0.00079
   8.14739       0.012      0.00079
   8.15739       0.011      0.00079
   8.16738       0.009      0.00079
   8.17738       0.006      0.00079
   8.18737       0.003      0.00079
   8.19737       0.001      0.00079
   8.20736      -0.000      0.00078
   8.21736      -0.002      0.00078
   8.22736      -0.003      0.00078
   8.23735      -0.003      0.00078
   8.24735      -0.002      0.00078
   8.25734      -0.002      0.00078
   8.26734       0.001      0.00078
   8.27733       0.001      0.00078
   8.28733       0.002      0.00078
   8.29732       0.003      0.00078
   8.30732       0.003      0.00078
   8.31732       0.004      0.00078
   8.32731       0.005      0.00078
   8.33731       0.006      0.00078
   8.34730       0.007      0.00078
   8.35730       0.008      0.00078
   8.36729       0.008      0.00078
   8.37729       0.008      0.00078
   8.38728       0.009      0.00078
   8.39728       0.010      0.00078
   8.40728       0.011      0.00078
   8.41727       0.012      0.00078
   8.42727       0.013      0.00078
   8.43726       0.013      0.00078
   8.44726       0.013      0.00078
   8.45725       0.013      0.00078
   8.46725       0.012      0.00078
   8.47725       0.010      0.00077
   8.48724       0.008      0.00077
   8.49724       0.005      0.00077
   8.50723       0.005      0.00077
   8.51723       0.003      0.00077
   8.52722       0.002      0.00077
   8.53722       0.002      0.00077
   8.54721       0.002      0.00077
   8.55721       0.003      0.00077
   8.56721       0.004      0.00077
   8.57720       0.005      0.00077
   8.58720       0.004      0.00077
   8.59719       0.005      0.00077
   8.60719       0.003      0.00077
   8.61718       0.001      0.00077
   8.62718       0.001      0.00077
   8.63717       0.001      0.00077
   8.64717       0.001      0.00077
   8.65717       0.002      0.00077
   8.66716       0.002      0.00077
   8.67716       0.002      0.00077
   8.68715       0.001      0.00077
   8.69715       0.000      0.00076
   8.70714       0.001      0.00076
   8.71714       0.001      0.00076
   8.72713       0.001      0.00076
   8.73713       0.002      0.00076
   8.74713       0.002      0.00076
   8.75712       0.002      0.00076
   8.76712       0.002      0.00076
   8.77711       0.002      0.00076
   8.78711       0.002      0.00076
   8.79710       0.004      0.00076
   8.80710       0.006      0.00076
   8.81709       0.007      0.00076
   8.82709       0.008      0.00076
   8.83709       0.008      0.00076
   8.84708       0.009      0.00076
   8.85708       0.008      0.00076
   8.86707       0.007      0.00076
   8.87707       0.007      0.00076
   8.88706       0.006      0.00076
   8.89706       0.005      0.00076
   8.90705       0.005      0.00076
   8.91705       0.004      0.00076
   8.92705       0.003      0.00076
   8.93704       0.003      0.00075
   8.94704       0.004      0.00076
   8.95703       0.003      0.00075
   8.96703       0.004      0.00075
   8.97702       0.004      0.00075
   8.98702       0.006      0.00075
   8.99701       0.007      0.00075
   9.00701       0.008      0.00075
   9.01701       0.011      0.00075
   9.02700       0.011      0.00075
   9.03700       0.011      0.00075
   9.04699       0.011      0.00075
   9.05699       0.011      0.00075
   9.06698       0.009      0.00075
   9.07698       0.008      0.00075
   9.08698       0.006      0.00075
   9.09697       0.005      0.00075
   9.10697       0.002      0.00075
   9.11696       0.001      0.00075
   9.12696       0.000      0.00075
   9.13695      -0.001      0.00075
   9.14695      -0.001      0.00075
   9.15694       0.001      0.00075
   9.16694       0.003      0.00075
   9.17694       0.005      0.00075
   9.18693       0.007      0.00075
   9.19693       0.008      0.00075
   9.20692       0.009      0.00075
   9.21692       0.008      0.00074
   9.22691       0.007      0.00075
   9.23691       0.006      0.00074
   9.24690       0.006      0.00074
   9.25690       0.004      0.00074
   9.26690       0.004      0.00074
   9.27689       0.001      0.00074
   9.28689      -0.001      0.00074
   9.29688      -0.001      0.00074
   9.30688      -0.003      0.00074
   9.31687      -0.004      0.00074
   9.32687      -0.004      0.00074
   9.33686      -0.005      0.00074
   9.34686      -0.004      0.00074
   9.35686      -0.004      0.00074
   9.36685      -0.002      0.00074
   9.37685       0.001      0.00074
   9.38684       0.004      0.00074
   9.39684       0.007      0.00074
   9.40683       0.009      0.00074
   9.41683       0.009      0.00074
   9.42682       0.009      0.00074
   9.43682       0.010      0.00074
   9.44682       0.009      0.00074
   9.45681       0.008      0.00074
   9.46681       0.008      0.00074
   9.47680       0.005      0.00074
   9.48680       0.005      0.00074
   9.49679       0.004      0.00074
   9.50679       0.003      0.00074
   9.51678       0.004      0.00073
   9.52678       0.004      0.00073
   9.53678       0.003      0.00074
   9.54677       0.003      0.00073
   9.55677       0.002      0.00073
   9.56676       0.001      0.00073
   9.57676       0.001      0.00073
   9.58675       0.001      0.00073
   9.59675       0.001      0.00073
   9.60674       0.001      0.00073
   9.61674       0.002      0.00073
   9.62674       0.003      0.00073
   9.63673       0.004      0.00073
   9.64673       0.004      0.00073
   9.65672       0.006      0.00073
   9.66672       0.006      0.00073
   9.67671       0.005      0.00073
   9.68671       0.006      0.00073
   9.69670       0.006      0.00073
   9.70670       0.005      0.00073
   9.71670       0.005      0.00073
   9.72669       0.004      0.00073
   9.73669       0.003      0.00073
   9.74668       0.001      0.00073
   9.75668      -0.000      0.00073
   9.76667      -0.000      0.00073
   9.77667      -0.001      0.00073
   9.78667       0.000      0.00073
   9.79666       0.001      0.00073
   9.80666       0.002      0.00073
   9.81665       0.003      0.00073
   9.82665       0.004      0.00073
   9.83664       0.003      0.00073
   9.84664       0.004      0.00073
   9.85663       0.003      0.00073
   9.86663       0.002      0.00073
   9.87663       0.002      0.00073
   9.88662       0.001      0.00073
   9.89662       0.001      0.00073
   9.90661       0.003      0.00072
   9.91661       0.002      0.00073
   9.92660       0.004      0.00073
   9.93660       0.007      0.00073
   9.94659       0.007      0.00073
   9.95659       0.009      0.00073
   9.96659       0.010      0.00074
   9.97658       0.009      0.00074
   9.98658       0.009      0.00074
   9.99657       0.008      0.00074
  10.00657       0.007      0.00074
  10.01656       0.006      0.00074
  10.02656       0.005      0.00074
  10.03655       0.005      0.00074
  10.04655       0.006      0.00074
  10.05655       0.005      0.00074
  10.06654       0.007      0.00074
  10.07654       0.007      0.00074
  10.08653       0.005      0.00074
  10.09653       0.005      0.00074
  10.10652       0.005      0.00074
  10.11652       0.003      0.00074
  10.12651       0.003      0.00074
  10.13651       0.002      0.00074
  10.14651       0.001      0.00075
  10.15650       0.000      0.00075
  10.16650      -0.002      0.00074
  10.17649      -0.002      0.00075
  10.18649      -0.001      0.00075
  10.19648      -0.003      0.00075
  10.20648      -0.003      0.00075
  10.21647      -0.001      0.00075
  10.22647      -0.003      0.00075
  10.23647      -0.003      0.00075
  10.24646      -0.002      0.00075
  10.25646      -0.002      0.00075
  10.26645      -0.002      0.00075
  10.27645      -0.001      0.00075
  10.28644      -0.001      0.00075
  10.29644       0.001      0.00075
  10.30643       0.002      0.00075
  10.31643       0.004      0.00075
  10.32643       0.006      0.00075
  10.33642       0.008      0.00075
  10.34642       0.009      0.00075
  10.35641       0.009      0.00075
  10.36641       0.008      0.00075
  10.37640       0.008      0.00075
  10.38640       0.006      0.00075
  10.39639       0.003      0.00075
  10.40639       0.004      0.00075
  10.41639       0.002      0.00075
  10.42638       0.001      0.00075
  10.43638       0.002      0.00075
  10.44637       0.000      0.00075
  10.45637       0.001      0.00075
  10.46636      -0.000      0.00075
  10.47636      -0.001      0.00075
  10.48636      -0.001      0.00075
  10.49635      -0.001      0.00075
  10.50635      -0.002      0.00076
  10.51634       0.000      0.00076
  10.52634       0.000      0.00076
  10.53633       0.001      0.00076
  10.54633       0.003      0.00076
  10.55632       0.003      0.00076
  10.56632       0.004      0.00076
  10.57632       0.005      0.00076
  10.58631       0.006      0.00076
  10.59631       0.008      0.00076
  10.60630       0.008      0.00076
  10.61630       0.009      0.00076
  10.62629       0.010      0.00076
  10.63629       0.010      0.00076
  10.64628       0.011      0.00076
  10.65628       0.012      0.00076
  10.66628       0.010      0.00076
  10.67627       0.012      0.00076
  10.68627       0.012      0.00076
  10.69626       0.011      0.00076
  10.70626       0.011      0.00076
  10.71625       0.010      0.00076
  10.72625       0.008      0.00076
  10.73624       0.007      0.00076
  10.74624       0.005      0.00076
  10.75624       0.003      0.00076
  10.76623       0.003      0.00076
  10.77623       0.001      0.00076
  10.78622      -0.001      0.00077
  10.79622      -0.001      0.00077
  10.80621      -0.003      0.00077
  10.81621      -0.001      0.00077
  10.82620      -0.000      0.00077
  10.83620       0.002      0.00078
  10.84620       0.005      0.00078
  10.85619       0.006      0.00078
  10.86619       0.006      0.00078
  10.87618       0.008      0.00078
  10.88618       0.006      0.00078
  10.89617       0.006      0.00078
  10.90617       0.006      0.00078
  10.91616       0.004      0.00078
  10.92616       0.005      0.00078
  10.93616       0.006      0.00078
  10.94615       0.006      0.00078
  10.95615       0.007      0.00078
  10.96614       0.006      0.00079
  10.97614       0.005      0.00079
  10.98613       0.006      0.00079
  10.99613       0.003      0.00079
  11.00612       0.003      0.00079
  11.01612       0.004      0.00079
  11.02612       0.003      0.00079
  11.03611       0.003      0.00080
  11.04611       0.003      0.00080
  11.05610       0.001      0.00080
  11.06610       0.003      0.00081
  11.07609       0.002      0.00081
  11.08609       0.002      0.00081
  11.09609       0.004      0.00081
  11.10608       0.005      0.00082
  11.11608       0.005      0.00082
  11.12607       0.007      0.00082
  11.13607       0.008      0.00082
  11.14606       0.009      0.00082
  11.15606       0.011      0.00082
  11.16605       0.009      0.00082
  11.17605       0.011      0.00083
  11.18605       0.009      0.00083
  11.19604       0.008      0.00083
  11.20604       0.007      0.00083
  11.21603       0.004      0.00083
  11.22603      -0.000      0.00083
  11.23602      -0.001      0.00083
  11.24602      -0.004      0.00083
  11.25601      -0.004      0.00084
  11.26601      -0.003      0.00084
  11.27601      -0.001      0.00084
  11.28600       0.001      0.00084
  11.29600       0.003      0.00084
  11.30599       0.004      0.00085
  11.31599       0.007      0.00085
  11.32598       0.007      0.00085
  11.33598       0.009      0.00085
  11.34597       0.011      0.00085
  11.35597       0.010      0.00086
  11.36597       0.010      0.00086
  11.37596       0.009      0.00086
  11.38596       0.006      0.00086
  11.39595       0.006      0.00086
  11.40595       0.005      0.00086
  11.41594       0.003      0.00086
  11.42594       0.003      0.00087
  11.43593      -0.001      0.00087
  11.44593      -0.004      0.00087
  11.45593      -0.004      0.00087
  11.46592      -0.004      0.00087
  11.47592      -0.002      0.00087
  11.48591       0.001      0.00087
  11.49591       0.002      0.00088
  11.50590       0.004      0.00088
  11.51590       0.003      0.00088
  11.52589       0.004      0.00088
  11.53589       0.006      0.00088
  11.54589       0.005      0.00088
  11.55588       0.006      0.00089
  11.56588       0.010      0.00089
  11.57587       0.007      0.00089
  11.58587       0.008      0.00089
  11.59586       0.009      0.00089
  11.60586       0.006      0.00089
  11.61585       0.005      0.00089
  11.62585       0.003      0.00089
  11.63585      -0.000      0.00090
  11.64584      -0.001      0.00090
  11.65584      -0.004      0.00090
  11.66583      -0.004      0.00090
  11.67583      -0.002      0.00090
  11.68582      -0.001      0.00090
  11.69582       0.000      0.00090
  11.70581       0.002      0.00091
  11.71581       0.002      0.00091
  11.72581       0.002      0.00091
  11.73580       0.001      0.00091
  11.74580       0.000      0.00091
  11.75579       0.001      0.00091
  11.76579      -0.002      0.00091
  11.77578      -0.002      0.00091
  11.78578       0.001      0.00092
  11.79578       0.001      0.00092
  11.80577       0.004      0.00092
  11.81577       0.007      0.00092
  11.82576       0.005      0.00092
  11.83576       0.008      0.00093
  11.84575       0.007      0.00093
  11.85575       0.002      0.00093
  11.86574       0.003      0.00093
  11.87574       0.002      0.00093
  11.88574      -0.001      0.00093
  11.89573       0.000      0.00093
  11.90573       0.000      0.00093
  11.91572       0.003      0.00094
  11.92572       0.004      0.00094
  11.93571       0.003      0.00094
  11.94571       0.005      0.00094
  11.95570       0.004      0.00094
  11.96570       0.002      0.00094
  11.97570       0.006      0.00095
  11.98569       0.005      0.00095
  11.99569       0.007      0.00095
  12.00568       0.010      0.00095
  12.01568       0.008      0.00095
  12.02567       0.009      0.00095
  12.03567       0.011      0.00095
  12.04566       0.008      0.00096
  12.05566       0.010      0.00096
  12.06566       0.011      0.00096
  12.07565       0.010      0.00096
  12.08565       0.013      0.00096
  12.09564       0.012      0.00096
  12.10564       0.012      0.00096
  12.11563       0.014      0.00097
  12.12563       0.011      0.00097
  12.13562       0.012      0.00097
  12.14562       0.013      0.00097
  12.15562       0.012      0.00097
  12.16561       0.012      0.00097
  12.17561       0.011      0.00097
  12.18560       0.007      0.00097
  12.19560       0.009      0.00098
  12.20559       0.004      0.00098
  12.21559       0.004      0.00098
  12.22558       0.008      0.00098
  12.23558       0.005      0.00098
  12.24558       0.010      0.00098
  12.25557       0.013      0.00099
  12.26557       0.014      0.00099
  12.27556       0.019      0.00099
  12.28556       0.020      0.00099
  12.29555       0.020      0.00099
  12.30555       0.022      0.00100
  12.31554       0.021      0.00100
  12.32554       0.020      0.00100
  12.33554       0.019      0.00100
  12.34553       0.015      0.00100
  12.35553       0.012      0.00100
  12.36552       0.011      0.00100
  12.37552       0.006      0.00100
  12.38551       0.005      0.00100
  12.39551       0.004      0.00100
  12.40550       0.004      0.00100
  12.41550       0.008      0.00101
  12.42550       0.007      0.00101
  12.43549       0.011      0.00101
  12.44549       0.013      0.00101
  12.45548       0.013      0.00101
  12.46548       0.014      0.00101
  12.47547       0.012      0.00102
  12.48547       0.009      0.00102
  12.49547       0.007      0.00102
  12.50546       0.001      0.00102
  12.51546      -0.002      0.00102
  12.52545      -0.002      0.00102
  12.53545      -0.006      0.00102
  12.54544      -0.006      0.00102
  12.55544      -0.004      0.00102
  12.56543      -0.008      0.00102
  12.57543      -0.008      0.00103
  12.58543      -0.008      0.00103
  12.59542      -0.009      0.00103
  12.60542      -0.005      0.00103
  12.61541      -0.005      0.00103
  12.62541      -0.001      0.00103
  12.63540       0.002      0.00104
  12.64540      -0.001      0.00104
  12.65539       0.001      0.00104
  12.66539       0.009      0.00105
  12.67539       0.011      0.00105
  12.68538       0.017      0.00106
  12.69538       0.027      0.00106
  12.70537       0.033      0.00107
  12.71537       0.039      0.00107
  12.72536       0.043      0.00108
  12.73536       0.049      0.00109
  12.74535       0.056      0.00109
  12.75535       0.062      0.00110
  12.76535       0.065      0.00110
  12.77534       0.069      0.00111
  12.78534       0.072      0.00112
  12.79533       0.075      0.00112
  12.80533       0.078      0.00113
  12.81532       0.081      0.00113
  12.82532       0.084      0.00113
  12.83531       0.087      0.00114
  12.84531       0.091      0.00115
  12.85531       0.094      0.00115
  12.86530       0.098      0.00116
  12.87530       0.101      0.00116
  12.88529       0.105      0.00116
  12.89529       0.109      0.00117
  12.90528       0.112      0.00117
  12.91528       0.116      0.00118
  12.92527       0.119      0.00118
  12.93527       0.122      0.00119
  12.94527       0.125      0.00119
  12.95526       0.127      0.00120
  12.96526       0.129      0.00120
  12.97525       0.129      0.00121
  12.98525       0.129      0.00121
  12.99524       0.127      0.00121
  13.00524       0.125      0.00122
  13.01523       0.121      0.00122
  13.02523       0.115      0.00122
  13.03523       0.109      0.00123
  13.04522       0.103      0.00123
  13.05522       0.098      0.00123
  13.06521       0.092      0.00123
  13.07521       0.089      0.00124
  13.08520       0.087      0.00124
  13.09520       0.085      0.00124
  13.10520       0.085      0.00125
  13.11519       0.084      0.00125
  13.12519       0.085      0.00126
  13.13518       0.085      0.00126
  13.14518       0.084      0.00126
  13.15517       0.082      0.00127
  13.16517       0.080      0.00127
  13.17516       0.077      0.00128
  13.18516       0.074      0.00128
  13.19516       0.070      0.00128
  13.20515       0.067      0.00129
  13.21515       0.064      0.00129
  13.22514       0.061      0.00129
  13.23514       0.058      0.00130
  13.24513       0.055      0.00130
  13.25513       0.053      0.00130
  13.26512       0.051      0.00131
  13.27512       0.051      0.00131
  13.28512       0.050      0.00132
  13.29511       0.051      0.00132
  13.30511       0.051      0.00132
  13.31510       0.053      0.00133
  13.32510       0.054      0.00133
  13.33509       0.056      0.00134
  13.34509       0.058      0.00134
  13.35508       0.060      0.00135
  13.36508       0.062      0.00135
  13.37508       0.063      0.00136
  13.38507       0.062      0.00136
  13.39507       0.060      0.00136
  13.40506       0.057      0.00137
  13.41506       0.054      0.00137
  13.42505       0.052      0.00138
  13.43505       0.052      0.00138
  13.44504       0.054      0.00139
  13.45504       0.058      0.00139
  13.46504       0.062      0.00140
  13.47503       0.066      0.00140
  13.48503       0.068      0.00141
  13.49502       0.069      0.00141
  13.50502       0.068      0.00142
  13.51501       0.066      0.00142
  13.52501       0.064      0.00142
  13.53500       0.062      0.00143
  13.54500       0.061      0.00143
  13.55500       0.061      0.00144
  13.56499       0.062      0.00144
  13.57499       0.063      0.00145
  13.58498       0.065      0.00145
  13.59498       0.066      0.00146
  13.60497       0.067      0.00146
  13.61497       0.067      0.00147
  13.62496       0.068      0.00147
  13.63496       0.068      0.00148
  13.64496       0.067      0.00148
  13.65495       0.068      0.00149
  13.66495       0.069      0.00149
  13.67494       0.071      0.00150
  13.68494       0.075      0.00151
  13.69493       0.083      0.00151
  13.70493       0.092      0.00152
  13.71492       0.103      0.00153
  13.72492       0.117      0.00154
  13.73492       0.134      0.00155
  13.74491       0.153      0.00156
  13.75491       0.176      0.00157
  13.76490       0.204      0.00158
  13.77490       0.240      0.00159
  13.78489       0.283      0.00161
  13.79489       0.336      0.00163
  13.80489       0.401      0.00165
  13.81488       0.479      0.00168
  13.82488       0.569      0.00171
  13.83487       0.672      0.00174
  13.84487       0.791      0.00177
  13.85486       0.923      0.00181
  13.86486       1.068      0.00185
  13.87485       1.227      0.00189
  13.88485       1.402      0.00194
  13.89485       1.587      0.00199
  13.90484       1.783      0.00204
  13.91484       1.983      0.00209
  13.92483       2.188      0.00214
  13.93483       2.384      0.00219
  13.94482       2.569      0.00223
  13.95482       2.735      0.00228
  13.96481       2.878      0.00231
  13.97481       2.990      0.00234
  13.98481       3.069      0.00237
  13.99480       3.115      0.00238
  14.00480       3.126      0.00239
  14.01479       3.104      0.00240
  14.02479       3.051      0.00240
  14.03478       2.971      0.00239
  14.04478       2.867      0.00238
  14.05477       2.745      0.00236
  14.06477       2.607      0.00234
  14.07477       2.454      0.00232
  14.08476       2.296      0.00229
  14.09476       2.132      0.00226
  14.10475       1.969      0.00223
  14.11475       1.806      0.00220
  14.12474       1.650      0.00218
  14.13474       1.502      0.00215
  14.14473       1.363      0.00212
  14.15473       1.233      0.00210
  14.16473       1.114      0.00208
  14.17472       1.005      0.00206
  14.18472       0.907      0.00204
  14.19471       0.817      0.00202
  14.20471       0.737      0.00201
  14.21470       0.667      0.00200
  14.22470       0.607      0.00199
  14.23469       0.558      0.00198
  14.24469       0.521      0.00198
  14.25469       0.495      0.00198
  14.26468       0.483      0.00199
  14.27468       0.482      0.00200
  14.28467       0.497      0.00201
  14.29467       0.529      0.00203
  14.30466       0.578      0.00205
  14.31466       0.648      0.00208
  14.32465       0.744      0.00212
  14.33465       0.868      0.00216
  14.34465       1.022      0.00221
  14.35464       1.207      0.00228
  14.36464       1.428      0.00234
  14.37463       1.678      0.00242
  14.38463       1.958      0.00251
  14.39462       2.252      0.00259
  14.40462       2.569      0.00267
  14.41461       2.887      0.00277
  14.42461       3.197      0.00286
  14.43461       3.486      0.00293
  14.44460       3.743      0.00300
  14.45460       3.954      0.00307
  14.46459       4.104      0.00312
  14.47459       4.187      0.00314
  14.48458       4.200      0.00317
  14.49458       4.142      0.00317
  14.50458       4.015      0.00316
  14.51457       3.829      0.00312
  14.52457       3.596      0.00308
  14.53456       3.321      0.00303
  14.54456       3.020      0.00297
  14.55455       2.707      0.00290
  14.56455       2.392      0.00283
  14.57454       2.079      0.00276
  14.58454       1.785      0.00269
  14.59454       1.515      0.00262
  14.60453       1.272      0.00256
  14.61453       1.054      0.00250
  14.62452       0.871      0.00246
  14.63452       0.714      0.00241
  14.64451       0.582      0.00238
  14.65451       0.472      0.00235
  14.66450       0.383      0.00234
  14.67450       0.311      0.00232
  14.68450       0.253      0.00230
  14.69449       0.209      0.00230
  14.70449       0.174      0.00229
  14.71448       0.148      0.00228
  14.72448       0.129      0.00229
  14.73447       0.114      0.00229
  14.74447       0.103      0.00229
  14.75446       0.096      0.00229
  14.76446       0.090      0.00230
  14.77446       0.085      0.00231
  14.78445       0.080      0.00231
  14.79445       0.074      0.00231
  14.80444       0.067      0.00232
  14.81444       0.061      0.00233
  14.82443       0.056      0.00234
  14.83443       0.052      0.00234
  14.84442       0.049      0.00234
  14.85442       0.049      0.00235
  14.86442       0.050      0.00236
  14.87441       0.051      0.00237
  14.88441       0.051      0.00237
  14.89440       0.052      0.00239
  14.90440       0.052      0.00239
  14.91439       0.054      0.00240
  14.92439       0.056      0.00241
  14.93438       0.062      0.00242
  14.94438       0.074      0.00243
  14.95438       0.090      0.00245
  14.96437       0.111      0.00247
  14.97437       0.138      0.00248
  14.98436       0.169      0.00250
  14.99436       0.205      0.00253
  15.00435       0.245      0.00256
  15.01435       0.293      0.00257
  15.02434       0.348      0.00261
  15.03434       0.415      0.00265
  15.04434       0.495      0.00269
  15.05433       0.587      0.00273
  15.06433       0.697      0.00279
  15.07432       0.827      0.00284
  15.08432       0.973      0.00291
  15.09431       1.142      0.00298
  15.10431       1.340      0.00306
  15.11431       1.556      0.00315
  15.12430       1.794      0.00325
  15.13430       2.052      0.00334
  15.14429       2.327      0.00345
  15.15429       2.607      0.00356
  15.16428       2.887      0.00366
  15.17428       3.165      0.00375
  15.18427       3.419      0.00385
  15.19427       3.654      0.00394
  15.20427       3.861      0.00400
  15.21426       4.027      0.00408
  15.22426       4.157      0.00414
  15.23425       4.247      0.00417
  15.24425       4.292      0.00421
  15.25424       4.295      0.00423
  15.26424       4.251      0.00422
  15.27423       4.167      0.00422
  15.28423       4.041      0.00421
  15.29423       3.878      0.00416
  15.30422       3.689      0.00413
  15.31422       3.481      0.00409
  15.32421       3.255      0.00402
  15.33421       3.028      0.00398
  15.34420       2.796      0.00391
  15.35420       2.560      0.00384
  15.36419       2.334      0.00378
  15.37419       2.112      0.00372
  15.38419       1.899      0.00365
  15.39418       1.701      0.00360
  15.40418       1.519      0.00354
  15.41417       1.353      0.00349
  15.42417       1.204      0.00344
  15.43416       1.070      0.00341
  15.44416       0.949      0.00337
  15.45415       0.842      0.00334
  15.46415       0.745      0.00331
  15.47415       0.658      0.00329
  15.48414       0.582      0.00327
  15.49414       0.514      0.00325
  15.50413       0.454      0.00324
  15.51413       0.401      0.00323
  15.52412       0.357      0.00322
  15.53412       0.320      0.00322
  15.54411       0.290      0.00323
  15.55411       0.266      0.00323
  15.56411       0.246      0.00324
  15.57410       0.230      0.00324
  15.58410       0.215      0.00326
  15.59409       0.201      0.00326
  15.60409       0.188      0.00328
  15.61408       0.177      0.00329
  15.62408       0.168      0.00331
  15.63407       0.163      0.00332
  15.64407       0.161      0.00334
  15.65407       0.166      0.00336
  15.66406       0.177      0.00338
  15.67406       0.196      0.00342
  15.68405       0.223      0.00345
  15.69405       0.258      0.00349
  15.70404       0.301      0.00354
  15.71404       0.354      0.00359
  15.72403       0.418      0.00365
  15.73403       0.494      0.00371
  15.74403       0.589      0.00379
  15.75402       0.705      0.00388
  15.76402       0.849      0.00398
  15.77401       1.025      0.00410
  15.78401       1.240      0.00424
  15.79400       1.494      0.00441
  15.80400       1.784      0.00458
  15.81400       2.117      0.00477
  15.82399       2.480      0.00498
  15.83399       2.874      0.00520
  15.84398       3.289      0.00543
  15.85398       3.715      0.00566
  15.86397       4.147      0.00588
  15.87397       4.570      0.00611
  15.88396       4.965      0.00633
  15.89396       5.319      0.00652
  15.90396       5.610      0.00670
  15.91395       5.828      0.00683
  15.92395       5.959      0.00695
  15.93394       5.995      0.00702
  15.94394       5.940      0.00707
  15.95393       5.794      0.00708
  15.96393       5.568      0.00704
  15.97392       5.265      0.00699
  15.98392       4.906      0.00689
  15.99392       4.501      0.00677
  16.00391       4.066      0.00665
  16.01391       3.615      0.00647
  16.02390       3.167      0.00632
  16.03390       2.731      0.00615
  16.04389       2.324      0.00599
  16.05389       1.953      0.00583
  16.06388       1.624      0.00568
  16.07388       1.345      0.00557
  16.08388       1.109      0.00548
  16.09387       0.918      0.00540
  16.10387       0.764      0.00536
  16.11386       0.643      0.00534
  16.12386       0.546      0.00532
  16.13385       0.469      0.00534
  16.14385       0.403      0.00536
  16.15384       0.349      0.00539
  16.16384       0.301      0.00543
  16.17384       0.259      0.00547
  16.18383       0.223      0.00553
  16.19383       0.194      0.00559
  16.20382       0.171      0.00566
  16.21382       0.155      0.00575
  16.22381       0.144      0.00583
  16.23381       0.138      0.00595
  16.24380       0.136      0.00605
  16.25380       0.137      0.00618
  16.26380       0.138      0.00632
  16.27379       0.138      0.00646
  16.28379       0.131      0.00660
  16.29378       0.119      0.00675
  16.30378       0.100      0.00690
  16.31377       0.083      0.00708
  16.32377       0.070      0.00725
  16.33376       0.068      0.00748
  16.34376       0.075      0.00773
  16.35376       0.090      0.00804
  16.36375       0.104      0.00836
  16.37375       0.114      0.00873
  16.38374       0.114      0.00911
  16.39374       0.109      0.00956
  16.40373       0.100      0.01005
  16.41373       0.093      0.01064
  16.42372       0.088      0.01122
  16.43372       0.087      0.01181
  16.44372       0.091      0.01238
  16.45371       0.102      0.01303
  16.46371       0.118      0.01375
  16.47370       0.132      0.01458
  16.48370       0.137      0.01552
  16.49369       0.127      0.01672
  16.50369       0.103      0.01804
  16.51369       0.068      0.01996
  16.52368       0.033      0.02256
  16.53368       0.003      0.02682
  16.54367      -0.019      0.03384
  16.55367      -0.030      0.04920
  16.56366      -0.019      0.07820
