  1.54056
   4.00721      -0.002      0.00134
   4.01720      -0.004      0.00133
   4.02719      -0.004      0.00133
   4.03718      -0.004      0.00133
   4.04717      -0.002      0.00133
   4.05716       0.000      0.00133
   4.06715       0.002      0.00133
   4.07714       0.002      0.00132
   4.08713       0.003      0.00133
   4.09712       0.002      0.00132
   4.10711       0.002      0.00132
   4.11710       0.003      0.00132
   4.12709       0.002      0.00132
   4.13709       0.003      0.00131
   4.14708       0.003      0.00132
   4.15707       0.002      0.00131
   4.16706       0.001      0.00131
   4.17705       0.001      0.00131
   4.18704       0.001      0.00131
   4.19703       0.002      0.00131
   4.20702       0.003      0.00130
   4.21701       0.004      0.00130
   4.22700       0.005      0.00130
   4.23699       0.006      0.00130
   4.24698       0.008      0.00130
   4.25697       0.009      0.00130
   4.26696       0.009      0.00130
   4.27695       0.011      0.00129
   4.28694       0.011      0.00130
   4.29693       0.011      0.00129
   4.30692       0.011      0.00129
   4.31691       0.010      0.00129
   4.32691       0.010      0.00129
   4.33690       0.009      0.00128
   4.34689       0.009      0.00129
   4.35688       0.008      0.00128
   4.36687       0.010      0.00128
   4.37686       0.009      0.00128
   4.38685       0.009      0.00128
   4.39684       0.008      0.00128
   4.40683       0.007      0.00128
   4.41682       0.005      0.00127
   4.42681       0.004      0.00127
   4.43680       0.003      0.00127
   4.44679       0.004      0.00127
   4.45678       0.005      0.00127
   4.46677       0.008      0.00127
   4.47676       0.010      0.00126
   4.48675       0.013      0.00127
   4.49674       0.015      0.00126
   4.50674       0.017      0.00126
   4.51673       0.017      0.00126
   4.52672       0.018      0.00126
   4.53671       0.017      0.00126
   4.54670       0.015      0.00126
   4.55669       0.013      0.00125
   4.56668       0.013      0.00126
   4.57667       0.012      0.00125
   4.58666       0.011      0.00125
   4.59665       0.011      0.00125
   4.60664       0.012      0.00125
   4.61663       0.012      0.00125
   4.62662       0.014      0.00125
   4.63661       0.014      0.00125
   4.64660       0.016      0.00124
   4.65659       0.017      0.00125
   4.66658       0.016      0.00124
   4.67657       0.017      0.00124
   4.68656       0.016      0.00124
   4.69656       0.014      0.00124
   4.70655       0.012      0.00123
   4.71654       0.010      0.00124
   4.72653       0.007      0.00123
   4.73652       0.005      0.00123
   4.74651       0.003      0.00123
   4.75650       0.001      0.00122
   4.76649       0.001      0.00122
   4.77648       0.001      0.00122
   4.78647       0.003      0.00122
   4.79646       0.006      0.00122
   4.80645       0.008      0.00122
   4.81644       0.013      0.00122
   4.82643       0.017      0.00122
   4.83642       0.018      0.00122
   4.84641       0.020      0.00122
   4.85640       0.020      0.00122
   4.86639       0.019      0.00122
   4.87639       0.017      0.00121
   4.88638       0.016      0.00121
   4.89637       0.016      0.00121
   4.90636       0.015      0.00121
   4.91635       0.016      0.00121
   4.92634       0.016      0.00121
   4.93633       0.017      0.00121
   4.94632       0.017      0.00121
   4.95631       0.020      0.00121
   4.96630       0.020      0.00121
   4.97629       0.021      0.00121
   4.98628       0.022      0.00120
   4.99627       0.023      0.00120
   5.00626       0.023      0.00120
   5.01625       0.024      0.00120
   5.02624       0.024      0.00120
   5.03623       0.023      0.00120
   5.04622       0.021      0.00120
   5.05622       0.019      0.00120
   5.06621       0.015      0.00119
   5.07620       0.012      0.00119
   5.08619       0.009      0.00119
   5.09618       0.007      0.00118
   5.10617       0.006      0.00118
   5.11616       0.005      0.00118
   5.12615       0.006      0.00118
   5.13614       0.006      0.00118
   5.14613       0.007      0.00118
   5.15612       0.009      0.00118
   5.16611       0.010      0.00118
   5.17610       0.011      0.00118
   5.18609       0.012      0.00117
   5.19608       0.011      0.00118
   5.20607       0.009      0.00117
   5.21606       0.007      0.00117
   5.22605       0.006      0.00117
   5.23604       0.004      0.00117
   5.24604       0.003      0.00116
   5.25603       0.003      0.00117
   5.26602       0.002      0.00116
   5.27601       0.002      0.00116
   5.28600       0.002      0.00116
   5.29599       0.002      0.00116
   5.30598       0.003      0.00116
   5.31597       0.002      0.00116
   5.32596       0.002      0.00115
   5.33595       0.003      0.00116
   5.34594       0.003      0.00115
   5.35593       0.003      0.00115
   5.36592       0.004      0.00115
   5.37591       0.005      0.00115
   5.38590       0.005      0.00115
   5.39589       0.005      0.00115
   5.40588       0.005      0.00115
   5.41587       0.006      0.00115
   5.42587       0.006      0.00115
   5.43586       0.006      0.00115
   5.44585       0.007      0.00115
   5.45584       0.008      0.00115
   5.46583       0.007      0.00114
   5.47582       0.008      0.00114
   5.48581       0.008      0.00115
   5.49580       0.008      0.00114
   5.50579       0.008      0.00114
   5.51578       0.008      0.00114
   5.52577       0.008      0.00114
   5.53576       0.008      0.00114
   5.54575       0.007      0.00114
   5.55574       0.006      0.00113
   5.56573       0.006      0.00114
   5.57572       0.006      0.00113
   5.58571       0.007      0.00113
   5.59570       0.008      0.00113
   5.60569       0.009      0.00113
   5.61569       0.010      0.00113
   5.62568       0.011      0.00113
   5.63567       0.011      0.00113
   5.64566       0.014      0.00113
   5.65565       0.015      0.00113
   5.66564       0.017      0.00113
   5.67563       0.017      0.00113
   5.68562       0.018      0.00113
   5.69561       0.018      0.00112
   5.70560       0.017      0.00113
   5.71559       0.017      0.00112
   5.72558       0.016      0.00112
   5.73557       0.016      0.00112
   5.74556       0.017      0.00112
   5.75555       0.018      0.00112
   5.76554       0.019      0.00112
   5.77553       0.020      0.00112
   5.78552       0.021      0.00112
   5.79552       0.020      0.00112
   5.80551       0.019      0.00111
   5.81550       0.016      0.00111
   5.82549       0.013      0.00111
   5.83548       0.011      0.00111
   5.84547       0.009      0.00111
   5.85546       0.009      0.00111
   5.86545       0.010      0.00110
   5.87544       0.012      0.00111
   5.88543       0.013      0.00110
   5.89542       0.016      0.00110
   5.90541       0.018      0.00111
   5.91540       0.018      0.00111
   5.92539       0.018      0.00110
   5.93538       0.019      0.00110
   5.94537       0.018      0.00110
   5.95536       0.018      0.00110
   5.96535       0.016      0.00110
   5.97535       0.015      0.00110
   5.98534       0.014      0.00109
   5.99533       0.011      0.00110
   6.00532       0.009      0.00109
   6.01531       0.008      0.00109
   6.02530       0.006      0.00109
   6.03529       0.005      0.00109
   6.04528       0.006      0.00109
   6.05527       0.007      0.00109
   6.06526       0.009      0.00109
   6.07525       0.011      0.00109
   6.08524       0.013      0.00109
   6.09523       0.016      0.00108
   6.10522       0.018      0.00109
   6.11521       0.021      0.00108
   6.12520       0.023      0.00109
   6.13519       0.026      0.00109
   6.14518       0.028      0.00109
   6.15517       0.030      0.00108
   6.16517       0.032      0.00109
   6.17516       0.035      0.00108
   6.18515       0.040      0.00109
   6.19514       0.046      0.00109
   6.20513       0.054      0.00109
   6.21512       0.062      0.00109
   6.22511       0.070      0.00109
   6.23510       0.079      0.00110
   6.24509       0.089      0.00110
   6.25508       0.100      0.00110
   6.26507       0.115      0.00111
   6.27506       0.134      0.00112
   6.28505       0.156      0.00112
   6.29504       0.190      0.00113
   6.30503       0.234      0.00115
   6.31502       0.294      0.00116
   6.32501       0.377      0.00119
   6.33500       0.490      0.00123
   6.34500       0.644      0.00127
   6.35499       0.850      0.00133
   6.36498       1.125      0.00140
   6.37497       1.482      0.00149
   6.38496       1.936      0.00160
   6.39495       2.498      0.00173
   6.40494       3.170      0.00186
   6.41493       3.932      0.00201
   6.42492       4.772      0.00216
   6.43491       5.646      0.00230
   6.44490       6.492      0.00244
   6.45489       7.262      0.00255
   6.46488       7.892      0.00263
   6.47487       8.324      0.00270
   6.48486       8.516      0.00272
   6.49485       8.452      0.00270
   6.50484       8.129      0.00267
   6.51483       7.576      0.00258
   6.52482       6.846      0.00247
   6.53482       5.999      0.00234
   6.54481       5.105      0.00219
   6.55480       4.218      0.00204
   6.56479       3.388      0.00189
   6.57478       2.657      0.00173
   6.58477       2.031      0.00160
   6.59476       1.525      0.00148
   6.60475       1.128      0.00137
   6.61474       0.826      0.00129
   6.62473       0.604      0.00123
   6.63472       0.442      0.00118
   6.64471       0.327      0.00114
   6.65470       0.246      0.00111
   6.66469       0.189      0.00109
   6.67468       0.147      0.00108
   6.68467       0.118      0.00107
   6.69466       0.096      0.00106
   6.70465       0.080      0.00106
   6.71465       0.067      0.00105
   6.72464       0.059      0.00105
   6.73463       0.050      0.00104
   6.74462       0.044      0.00104
   6.75461       0.037      0.00104
   6.76460       0.032      0.00103
   6.77459       0.028      0.00103
   6.78458       0.025      0.00103
   6.79457       0.024      0.00103
   6.80456       0.024      0.00103
   6.81455       0.024      0.00103
   6.82454       0.024      0.00103
   6.83453       0.025      0.00103
   6.84452       0.024      0.00103
   6.85451       0.023      0.00102
   6.86450       0.020      0.00102
   6.87449       0.017      0.00102
   6.88448       0.014      0.00102
   6.89448       0.012      0.00102
   6.90447       0.011      0.00102
   6.91446       0.010      0.00101
   6.92445       0.010      0.00102
   6.93444       0.009      0.00101
   6.94443       0.009      0.00101
   6.95442       0.009      0.00101
   6.96441       0.008      0.00101
   6.97440       0.008      0.00101
   6.98439       0.008      0.00101
   6.99438       0.008      0.00101
   7.00437       0.009      0.00101
   7.01436       0.009      0.00101
   7.02435       0.009      0.00101
   7.03434       0.009      0.00101
   7.04433       0.009      0.00101
   7.05432       0.009      0.00100
   7.06431       0.010      0.00100
   7.07430       0.011      0.00100
   7.08430       0.010      0.00100
   7.09429       0.011      0.00100
   7.10428       0.009      0.00100
   7.11427       0.007      0.00100
   7.12426       0.005      0.00100
   7.13425       0.005      0.00100
   7.14424       0.005      0.00100
   7.15423       0.004      0.00100
   7.16422       0.006      0.00100
   7.17421       0.006      0.00099
   7.18420       0.006      0.00100
   7.19419       0.006      0.00099
   7.20418       0.006      0.00099
   7.21417       0.005      0.00099
   7.22416       0.005      0.00099
   7.23415       0.005      0.00099
   7.24414       0.006      0.00099
   7.25413       0.008      0.00099
   7.26413       0.010      0.00099
   7.27412       0.012      0.00099
   7.28411       0.014      0.00099
   7.29410       0.015      0.00099
   7.30409       0.014      0.00099
   7.31408       0.014      0.00099
   7.32407       0.011      0.00099
   7.33406       0.008      0.00098
   7.34405       0.005      0.00098
   7.35404       0.002      0.00098
   7.36403      -0.001      0.00098
   7.37402      -0.003      0.00098
   7.38401      -0.004      0.00098
   7.39400      -0.004      0.00097
   7.40399      -0.002      0.00098
   7.41398      -0.000      0.00097
   7.42397       0.002      0.00097
   7.43396       0.005      0.00098
   7.44396       0.007      0.00098
   7.45395       0.008      0.00097
   7.46394       0.009      0.00098
   7.47393       0.008      0.00097
   7.48392       0.007      0.00097
   7.49391       0.005      0.00097
   7.50390       0.003      0.00097
   7.51389       0.003      0.00097
   7.52388       0.002      0.00097
   7.53387       0.002      0.00097
   7.54386       0.003      0.00097
   7.55385       0.004      0.00097
   7.56384       0.005      0.00097
   7.57383       0.006      0.00097
   7.58382       0.008      0.00097
   7.59381       0.008      0.00097
   7.60380       0.008      0.00097
   7.61379       0.008      0.00096
   7.62378       0.007      0.00096
   7.63378       0.007      0.00096
   7.64377       0.006      0.00096
   7.65376       0.005      0.00096
   7.66375       0.004      0.00096
   7.67374       0.003      0.00096
   7.68373       0.003      0.00096
   7.69372       0.004      0.00096
   7.70371       0.006      0.00096
   7.71370       0.007      0.00096
   7.72369       0.008      0.00096
   7.73368       0.008      0.00096
   7.74367       0.008      0.00096
   7.75366       0.007      0.00096
   7.76365       0.007      0.00096
   7.77364       0.005      0.00096
   7.78363       0.005      0.00095
   7.79362       0.004      0.00095
   7.80361       0.004      0.00095
   7.81361       0.004      0.00095
   7.82360       0.005      0.00095
   7.83359       0.006      0.00095
   7.84358       0.007      0.00095
   7.85357       0.009      0.00095
   7.86356       0.010      0.00095
   7.87355       0.011      0.00095
   7.88354       0.012      0.00095
   7.89353       0.013      0.00095
   7.90352       0.012      0.00095
   7.91351       0.012      0.00095
   7.92350       0.010      0.00095
   7.93349       0.010      0.00095
   7.94348       0.009      0.00095
   7.95347       0.007      0.00094
   7.96346       0.006      0.00094
   7.97345       0.005      0.00094
   7.98344       0.004      0.00094
   7.99343       0.002      0.00094
   8.00343       0.001      0.00094
   8.01342      -0.001      0.00094
   8.02341      -0.001      0.00094
   8.03340      -0.000      0.00094
   8.04339       0.001      0.00094
   8.05338       0.002      0.00094
   8.06337       0.003      0.00094
   8.07336       0.005      0.00094
   8.08335       0.007      0.00094
   8.09334       0.009      0.00094
   8.10333       0.010      0.00094
   8.11332       0.013      0.00094
   8.12331       0.015      0.00094
   8.13330       0.015      0.00094
   8.14329       0.016      0.00094
   8.15328       0.015      0.00094
   8.16327       0.014      0.00094
   8.17326       0.013      0.00093
   8.18326       0.010      0.00093
   8.19325       0.008      0.00093
   8.20324       0.006      0.00093
   8.21323       0.004      0.00093
   8.22322       0.003      0.00093
   8.23321       0.002      0.00093
   8.24320       0.002      0.00093
   8.25319       0.003      0.00093
   8.26318       0.003      0.00093
   8.27317       0.003      0.00093
   8.28316       0.003      0.00093
   8.29315       0.002      0.00092
   8.30314       0.002      0.00092
   8.31313       0.001      0.00092
   8.32312      -0.000      0.00092
   8.33311      -0.001      0.00092
   8.34310       0.000      0.00092
   8.35309       0.001      0.00092
   8.36309       0.002      0.00092
   8.37308       0.002      0.00092
   8.38307       0.003      0.00092
   8.39306       0.003      0.00092
   8.40305       0.002      0.00092
   8.41304       0.002      0.00092
   8.42303       0.003      0.00092
   8.43302       0.002      0.00092
   8.44301       0.003      0.00092
   8.45300       0.005      0.00092
   8.46299       0.005      0.00092
   8.47298       0.006      0.00092
   8.48297       0.007      0.00092
   8.49296       0.007      0.00091
   8.50295       0.006      0.00091
   8.51294       0.006      0.00091
   8.52293       0.005      0.00091
   8.53292       0.006      0.00091
   8.54291       0.006      0.00091
   8.55291       0.007      0.00091
   8.56290       0.008      0.00091
   8.57289       0.008      0.00091
   8.58288       0.008      0.00091
   8.59287       0.009      0.00091
   8.60286       0.007      0.00091
   8.61285       0.006      0.00091
   8.62284       0.006      0.00091
   8.63283       0.004      0.00091
   8.64282       0.003      0.00091
   8.65281       0.003      0.00091
   8.66280       0.003      0.00091
   8.67279       0.003      0.00091
   8.68278       0.005      0.00090
   8.69277       0.005      0.00091
   8.70276       0.006      0.00091
   8.71275       0.006      0.00090
   8.72274       0.006      0.00090
   8.73274       0.007      0.00090
   8.74273       0.006      0.00090
   8.75272       0.008      0.00090
   8.76271       0.009      0.00090
   8.77270       0.010      0.00090
   8.78269       0.011      0.00090
   8.79268       0.012      0.00090
   8.80267       0.012      0.00090
   8.81266       0.011      0.00090
   8.82265       0.008      0.00090
   8.83264       0.007      0.00090
   8.84263       0.004      0.00090
   8.85262       0.003      0.00090
   8.86261       0.002      0.00090
   8.87260       0.001      0.00089
   8.88259      -0.000      0.00089
   8.89258      -0.000      0.00089
   8.90257      -0.001      0.00089
   8.91256      -0.001      0.00089
   8.92256      -0.000      0.00089
   8.93255       0.000      0.00089
   8.94254       0.001      0.00089
   8.95253       0.001      0.00089
   8.96252      -0.000      0.00089
   8.97251       0.000      0.00089
   8.98250       0.001      0.00089
   8.99249       0.001      0.00089
   9.00248       0.001      0.00089
   9.01247       0.001      0.00089
   9.02246       0.001      0.00089
   9.03245       0.001      0.00089
   9.04244       0.001      0.00089
   9.05243       0.000      0.00089
   9.06242       0.000      0.00089
   9.07241      -0.001      0.00089
   9.08240      -0.002      0.00088
   9.09239      -0.002      0.00088
   9.10239      -0.003      0.00088
   9.11238      -0.002      0.00088
   9.12237      -0.001      0.00088
   9.13236      -0.001      0.00088
   9.14235       0.001      0.00088
   9.15234       0.002      0.00088
   9.16233       0.003      0.00088
   9.17232       0.006      0.00088
   9.18231       0.007      0.00088
   9.19230       0.008      0.00088
   9.20229       0.010      0.00088
   9.21228       0.010      0.00088
   9.22227       0.011      0.00088
   9.23226       0.012      0.00088
   9.24225       0.011      0.00088
   9.25224       0.011      0.00088
   9.26223       0.010      0.00088
   9.27222       0.008      0.00088
   9.28222       0.008      0.00088
   9.29221       0.007      0.00088
   9.30220       0.007      0.00088
   9.31219       0.007      0.00088
   9.32218       0.009      0.00088
   9.33217       0.010      0.00088
   9.34216       0.010      0.00088
   9.35215       0.010      0.00088
   9.36214       0.010      0.00088
   9.37213       0.009      0.00088
   9.38212       0.007      0.00088
   9.39211       0.007      0.00087
   9.40210       0.005      0.00087
   9.41209       0.004      0.00087
   9.42208       0.004      0.00087
   9.43207       0.003      0.00087
   9.44206       0.002      0.00087
   9.45205       0.002      0.00087
   9.46204       0.003      0.00087
   9.47204       0.004      0.00087
   9.48203       0.005      0.00087
   9.49202       0.006      0.00087
   9.50201       0.007      0.00087
   9.51200       0.007      0.00087
   9.52199       0.008      0.00087
   9.53198       0.007      0.00087
   9.54197       0.007      0.00087
   9.55196       0.005      0.00087
   9.56195       0.005      0.00087
   9.57194       0.002      0.00087
   9.58193       0.000      0.00087
   9.59192      -0.000      0.00087
   9.60191      -0.002      0.00086
   9.61190      -0.003      0.00086
   9.62189      -0.001      0.00086
   9.63188      -0.001      0.00086
   9.64187       0.000      0.00086
   9.65187       0.002      0.00086
   9.66186       0.003      0.00086
   9.67185       0.005      0.00086
   9.68184       0.006      0.00086
   9.69183       0.007      0.00086
   9.70182       0.007      0.00086
   9.71181       0.009      0.00086
   9.72180       0.008      0.00086
   9.73179       0.008      0.00086
   9.74178       0.009      0.00086
   9.75177       0.008      0.00086
   9.76176       0.007      0.00086
   9.77175       0.006      0.00086
   9.78174       0.005      0.00086
   9.79173       0.004      0.00086
   9.80172       0.002      0.00086
   9.81171       0.001      0.00086
   9.82170      -0.001      0.00086
   9.83169      -0.003      0.00086
   9.84169      -0.004      0.00086
   9.85168      -0.005      0.00086
   9.86167      -0.005      0.00086
   9.87166      -0.004      0.00085
   9.88165      -0.002      0.00086
   9.89164      -0.001      0.00086
   9.90163       0.000      0.00086
   9.91162       0.001      0.00086
   9.92161       0.002      0.00086
   9.93160       0.004      0.00086
   9.94159       0.005      0.00086
   9.95158       0.006      0.00086
   9.96157       0.008      0.00087
   9.97156       0.008      0.00087
   9.98155       0.008      0.00087
   9.99154       0.007      0.00087
  10.00153       0.008      0.00087
  10.01152       0.008      0.00087
  10.02152       0.008      0.00088
  10.03151       0.008      0.00088
  10.04150       0.008      0.00088
  10.05149       0.006      0.00088
  10.06148       0.004      0.00088
  10.07147       0.005      0.00088
  10.08146       0.003      0.00088
  10.09145       0.003      0.00088
  10.10144       0.004      0.00088
  10.11143       0.005      0.00088
  10.12142       0.006      0.00088
  10.13141       0.008      0.00088
  10.14140       0.009      0.00088
  10.15139       0.009      0.00088
  10.16138       0.009      0.00089
  10.17137       0.008      0.00088
  10.18136       0.009      0.00089
  10.19135       0.009      0.00089
  10.20135       0.009      0.00089
  10.21134       0.011      0.00089
  10.22133       0.009      0.00089
  10.23132       0.010      0.00089
  10.24131       0.010      0.00089
  10.25130       0.008      0.00089
  10.26129       0.008      0.00089
  10.27128       0.006      0.00089
  10.28127       0.004      0.00089
  10.29126       0.002      0.00089
  10.30125      -0.000      0.00089
  10.31124      -0.000      0.00089
  10.32123      -0.000      0.00089
  10.33122       0.000      0.00089
  10.34121       0.001      0.00089
  10.35120       0.002      0.00089
  10.36119       0.002      0.00089
  10.37118       0.002      0.00089
  10.38117       0.001      0.00089
  10.39117       0.000      0.00089
  10.40116      -0.001      0.00089
  10.41115      -0.001      0.00089
  10.42114      -0.001      0.00089
  10.43113       0.000      0.00089
  10.44112       0.001      0.00089
  10.45111       0.002      0.00089
  10.46110       0.003      0.00089
  10.47109       0.003      0.00089
  10.48108       0.004      0.00089
  10.49107       0.004      0.00090
  10.50106       0.003      0.00089
  10.51105       0.004      0.00089
  10.52104       0.004      0.00090
  10.53103       0.003      0.00090
  10.54102       0.003      0.00090
  10.55101       0.003      0.00090
  10.56100       0.002      0.00090
  10.57100       0.002      0.00090
  10.58099       0.001      0.00090
  10.59098       0.001      0.00090
  10.60097       0.000      0.00090
  10.61096       0.000      0.00090
  10.62095       0.002      0.00090
  10.63094       0.001      0.00090
  10.64093       0.001      0.00090
  10.65092       0.002      0.00090
  10.66091       0.002      0.00090
  10.67090       0.003      0.00090
  10.68089       0.004      0.00090
  10.69088       0.005      0.00090
  10.70087       0.006      0.00090
  10.71086       0.006      0.00090
  10.72085       0.006      0.00090
  10.73084       0.007      0.00090
  10.74083       0.006      0.00090
  10.75082       0.005      0.00090
  10.76082       0.005      0.00090
  10.77081       0.002      0.00090
  10.78080       0.001      0.00090
  10.79079       0.002      0.00091
  10.80078       0.001      0.00091
  10.81077       0.002      0.00091
  10.82076       0.004      0.00092
  10.83075       0.005      0.00092
  10.84074       0.007      0.00092
  10.85073       0.008      0.00092
  10.86072       0.009      0.00092
  10.87071       0.011      0.00092
  10.88070       0.011      0.00093
  10.89069       0.010      0.00092
  10.90068       0.010      0.00093
  10.91067       0.007      0.00093
  10.92066       0.006      0.00092
  10.93065       0.004      0.00093
  10.94065       0.003      0.00093
  10.95064       0.003      0.00093
  10.96063       0.003      0.00093
  10.97062       0.001      0.00093
  10.98061       0.002      0.00093
  10.99060       0.001      0.00093
  11.00059      -0.000      0.00093
  11.01058       0.001      0.00093
  11.02057      -0.001      0.00094
  11.03056      -0.001      0.00094
  11.04055      -0.001      0.00094
  11.05054      -0.002      0.00095
  11.06053      -0.002      0.00095
  11.07052      -0.002      0.00096
  11.08051      -0.001      0.00096
  11.09050       0.001      0.00096
  11.10049       0.002      0.00096
  11.11048       0.004      0.00097
  11.12048       0.006      0.00097
  11.13047       0.005      0.00097
  11.14046       0.005      0.00097
  11.15045       0.005      0.00097
  11.16044       0.002      0.00097
  11.17043       0.001      0.00098
  11.18042       0.000      0.00098
  11.19041      -0.001      0.00098
  11.20040      -0.000      0.00098
  11.21039      -0.000      0.00098
  11.22038      -0.001      0.00098
  11.23037       0.002      0.00099
  11.24036       0.001      0.00099
  11.25035       0.001      0.00099
  11.26034       0.001      0.00099
  11.27033       0.000      0.00100
  11.28032       0.001      0.00100
  11.29031       0.001      0.00100
  11.30030      -0.000      0.00100
  11.31030       0.000      0.00100
  11.32029      -0.000      0.00100
  11.33028      -0.002      0.00101
  11.34027      -0.002      0.00101
  11.35026      -0.003      0.00101
  11.36025      -0.004      0.00101
  11.37024      -0.002      0.00101
  11.38023      -0.001      0.00102
  11.39022      -0.000      0.00102
  11.40021       0.002      0.00102
  11.41020       0.003      0.00102
  11.42019       0.005      0.00103
  11.43018       0.005      0.00103
  11.44017       0.004      0.00103
  11.45016       0.004      0.00103
  11.46015       0.003      0.00103
  11.47014       0.003      0.00103
  11.48013       0.004      0.00104
  11.49013       0.004      0.00104
  11.50012       0.005      0.00104
  11.51011       0.008      0.00104
  11.52010       0.010      0.00104
  11.53009       0.012      0.00105
  11.54008       0.013      0.00105
  11.55007       0.013      0.00105
  11.56006       0.014      0.00105
  11.57005       0.012      0.00105
  11.58004       0.010      0.00105
  11.59003       0.010      0.00106
  11.60002       0.008      0.00106
  11.61001       0.008      0.00106
  11.62000       0.009      0.00106
  11.62999       0.008      0.00106
  11.63998       0.008      0.00106
  11.64997       0.007      0.00107
  11.65996       0.006      0.00107
  11.66995       0.006      0.00107
  11.67995       0.003      0.00107
  11.68994       0.001      0.00107
  11.69993       0.002      0.00107
  11.70992      -0.001      0.00107
  11.71991      -0.003      0.00108
  11.72990      -0.002      0.00108
  11.73989      -0.004      0.00108
  11.74988      -0.005      0.00108
  11.75987      -0.004      0.00108
  11.76986      -0.004      0.00108
  11.77985      -0.001      0.00109
  11.78984       0.001      0.00109
  11.79983       0.004      0.00109
  11.80982       0.008      0.00109
  11.81981       0.009      0.00110
  11.82980       0.010      0.00110
  11.83979       0.011      0.00110
  11.84978       0.009      0.00110
  11.85978       0.009      0.00110
  11.86977       0.008      0.00110
  11.87976       0.007      0.00111
  11.88975       0.007      0.00111
  11.89974       0.007      0.00111
  11.90973       0.007      0.00111
  11.91972       0.010      0.00111
  11.92971       0.010      0.00111
  11.93970       0.011      0.00112
  11.94969       0.011      0.00112
  11.95968       0.011      0.00112
  11.96967       0.011      0.00112
  11.97966       0.009      0.00112
  11.98965       0.008      0.00113
  11.99964       0.007      0.00113
  12.00963       0.005      0.00113
  12.01962       0.005      0.00113
  12.02961       0.006      0.00113
  12.03961       0.005      0.00113
  12.04960       0.006      0.00114
  12.05959       0.006      0.00114
  12.06958       0.003      0.00114
  12.07957       0.003      0.00114
  12.08956       0.000      0.00114
  12.09955      -0.001      0.00114
  12.10954       0.002      0.00114
  12.11953       0.002      0.00114
  12.12952       0.002      0.00115
  12.13951       0.005      0.00115
  12.14950       0.004      0.00115
  12.15949       0.004      0.00115
  12.16948       0.006      0.00116
  12.17947       0.006      0.00116
  12.18946       0.007      0.00116
  12.19945       0.007      0.00116
  12.20944       0.006      0.00116
  12.21943       0.007      0.00117
  12.22943       0.006      0.00117
  12.23942       0.006      0.00117
  12.24941       0.007      0.00117
  12.25940       0.003      0.00117
  12.26939       0.003      0.00117
  12.27938       0.002      0.00117
  12.28937       0.000      0.00117
  12.29936       0.002      0.00118
  12.30935       0.004      0.00118
  12.31934       0.006      0.00118
  12.32933       0.009      0.00118
  12.33932       0.011      0.00119
  12.34931       0.012      0.00119
  12.35930       0.015      0.00119
  12.36929       0.015      0.00119
  12.37928       0.014      0.00119
  12.38927       0.012      0.00120
  12.39926       0.010      0.00120
  12.40926       0.010      0.00120
  12.41925       0.007      0.00120
  12.42924       0.006      0.00120
  12.43923       0.007      0.00120
  12.44922       0.006      0.00120
  12.45921       0.007      0.00121
  12.46920       0.009      0.00121
  12.47919       0.008      0.00121
  12.48918       0.009      0.00121
  12.49917       0.009      0.00121
  12.50916       0.005      0.00121
  12.51915       0.007      0.00121
  12.52914       0.005      0.00122
  12.53913       0.005      0.00122
  12.54912       0.008      0.00122
  12.55911       0.005      0.00122
  12.56910       0.004      0.00122
  12.57909       0.004      0.00122
  12.58908      -0.001      0.00122
  12.59908      -0.002      0.00122
  12.60907      -0.003      0.00123
  12.61906      -0.004      0.00123
  12.62905      -0.003      0.00123
  12.63904      -0.004      0.00123
  12.64903      -0.004      0.00123
  12.65902       0.001      0.00124
  12.66901       0.003      0.00125
  12.67900       0.003      0.00125
  12.68899       0.010      0.00126
  12.69898       0.010      0.00126
  12.70897       0.010      0.00127
  12.71896       0.011      0.00127
  12.72895       0.014      0.00128
  12.73894       0.017      0.00128
  12.74893       0.023      0.00129
  12.75892       0.029      0.00130
  12.76891       0.036      0.00131
  12.77891       0.042      0.00131
  12.78890       0.047      0.00132
  12.79889       0.051      0.00133
  12.80888       0.055      0.00133
  12.81887       0.057      0.00134
  12.82886       0.059      0.00134
  12.83885       0.061      0.00135
  12.84884       0.061      0.00136
  12.85883       0.061      0.00136
  12.86882       0.062      0.00137
  12.87881       0.064      0.00137
  12.88880       0.066      0.00138
  12.89879       0.069      0.00138
  12.90878       0.073      0.00139
  12.91877       0.078      0.00139
  12.92876       0.082      0.00140
  12.93875       0.087      0.00141
  12.94874       0.092      0.00141
  12.95874       0.095      0.00142
  12.96873       0.098      0.00143
  12.97872       0.099      0.00143
  12.98871       0.099      0.00143
  12.99870       0.097      0.00144
  13.00869       0.094      0.00144
  13.01868       0.091      0.00145
  13.02867       0.087      0.00145
  13.03866       0.082      0.00145
  13.04865       0.077      0.00146
  13.05864       0.071      0.00146
  13.06863       0.066      0.00146
  13.07862       0.061      0.00146
  13.08861       0.056      0.00147
  13.09860       0.052      0.00147
  13.10859       0.049      0.00147
  13.11858       0.046      0.00148
  13.12857       0.044      0.00148
  13.13856       0.043      0.00149
  13.14856       0.042      0.00149
  13.15855       0.042      0.00149
  13.16854       0.041      0.00150
  13.17853       0.040      0.00151
  13.18852       0.039      0.00151
  13.19851       0.038      0.00151
  13.20850       0.037      0.00152
  13.21849       0.035      0.00152
  13.22848       0.033      0.00153
  13.23847       0.030      0.00153
  13.24846       0.028      0.00153
  13.25845       0.026      0.00154
  13.26844       0.024      0.00154
  13.27843       0.022      0.00155
  13.28842       0.023      0.00155
  13.29841       0.025      0.00156
  13.30840       0.028      0.00156
  13.31839       0.032      0.00157
  13.32839       0.036      0.00158
  13.33838       0.039      0.00158
  13.34837       0.041      0.00159
  13.35836       0.042      0.00159
  13.36835       0.043      0.00160
  13.37834       0.043      0.00160
  13.38833       0.042      0.00161
  13.39832       0.040      0.00161
  13.40831       0.038      0.00162
  13.41830       0.036      0.00162
  13.42829       0.034      0.00163
  13.43828       0.034      0.00163
  13.44827       0.033      0.00164
  13.45826       0.034      0.00164
  13.46825       0.034      0.00165
  13.47824       0.035      0.00165
  13.48823       0.034      0.00166
  13.49822       0.033      0.00166
  13.50821       0.032      0.00167
  13.51821       0.032      0.00167
  13.52820       0.032      0.00168
  13.53819       0.034      0.00169
  13.54818       0.037      0.00169
  13.55817       0.042      0.00170
  13.56816       0.046      0.00170
  13.57815       0.049      0.00171
  13.58814       0.051      0.00172
  13.59813       0.053      0.00173
  13.60812       0.052      0.00173
  13.61811       0.050      0.00174
  13.62810       0.048      0.00174
  13.63809       0.047      0.00175
  13.64808       0.047      0.00175
  13.65807       0.048      0.00176
  13.66806       0.051      0.00176
  13.67805       0.057      0.00177
  13.68804       0.066      0.00178
  13.69804       0.076      0.00179
  13.70803       0.086      0.00180
  13.71802       0.097      0.00181
  13.72801       0.108      0.00182
  13.73800       0.117      0.00184
  13.74799       0.128      0.00184
  13.75798       0.139      0.00185
  13.76797       0.153      0.00187
  13.77796       0.172      0.00188
  13.78795       0.196      0.00190
  13.79794       0.228      0.00191
  13.80793       0.268      0.00194
  13.81792       0.319      0.00197
  13.82791       0.382      0.00200
  13.83790       0.457      0.00203
  13.84789       0.544      0.00207
  13.85788       0.645      0.00212
  13.86787       0.759      0.00217
  13.87787       0.887      0.00222
  13.88786       1.028      0.00228
  13.89785       1.180      0.00234
  13.90784       1.342      0.00241
  13.91783       1.508      0.00247
  13.92782       1.676      0.00254
  13.93781       1.838      0.00260
  13.94780       1.992      0.00266
  13.95779       2.130      0.00271
  13.96778       2.249      0.00276
  13.97777       2.344      0.00280
  13.98776       2.413      0.00283
  13.99775       2.453      0.00285
  14.00774       2.464      0.00287
  14.01773       2.447      0.00287
  14.02772       2.403      0.00287
  14.03771       2.335      0.00286
  14.04770       2.245      0.00284
  14.05769       2.140      0.00282
  14.06769       2.020      0.00278
  14.07768       1.891      0.00275
  14.08767       1.757      0.00272
  14.09766       1.621      0.00269
  14.10765       1.486      0.00264
  14.11764       1.355      0.00261
  14.12763       1.228      0.00257
  14.13762       1.108      0.00253
  14.14761       0.997      0.00250
  14.15760       0.895      0.00247
  14.16759       0.803      0.00244
  14.17758       0.721      0.00242
  14.18757       0.650      0.00240
  14.19756       0.588      0.00238
  14.20755       0.534      0.00237
  14.21754       0.486      0.00235
  14.22753       0.444      0.00235
  14.23752       0.409      0.00234
  14.24752       0.379      0.00234
  14.25751       0.356      0.00234
  14.26750       0.342      0.00234
  14.27749       0.336      0.00235
  14.28748       0.340      0.00236
  14.29747       0.356      0.00238
  14.30746       0.385      0.00240
  14.31745       0.430      0.00243
  14.32744       0.492      0.00247
  14.33743       0.578      0.00252
  14.34742       0.687      0.00258
  14.35741       0.826      0.00266
  14.36740       0.995      0.00274
  14.37739       1.197      0.00283
  14.38738       1.429      0.00295
  14.39737       1.688      0.00306
  14.40736       1.965      0.00318
  14.41735       2.252      0.00331
  14.42734       2.536      0.00343
  14.43734       2.805      0.00353
  14.44733       3.042      0.00363
  14.45732       3.240      0.00372
  14.46731       3.384      0.00378
  14.47730       3.466      0.00384
  14.48729       3.480      0.00386
  14.49728       3.425      0.00385
  14.50727       3.298      0.00383
  14.51726       3.113      0.00378
  14.52725       2.880      0.00372
  14.53724       2.611      0.00363
  14.54723       2.324      0.00353
  14.55722       2.033      0.00343
  14.56721       1.753      0.00334
  14.57720       1.489      0.00322
  14.58719       1.248      0.00314
  14.59718       1.034      0.00305
  14.60717       0.849      0.00298
  14.61717       0.690      0.00290
  14.62716       0.558      0.00286
  14.63715       0.451      0.00282
  14.64714       0.367      0.00278
  14.65713       0.301      0.00275
  14.66712       0.250      0.00274
  14.67711       0.211      0.00272
  14.68710       0.179      0.00272
  14.69709       0.153      0.00271
  14.70708       0.129      0.00271
  14.71707       0.108      0.00270
  14.72706       0.089      0.00270
  14.73705       0.072      0.00270
  14.74704       0.058      0.00269
  14.75703       0.048      0.00270
  14.76702       0.041      0.00270
  14.77701       0.037      0.00271
  14.78700       0.034      0.00271
  14.79700       0.033      0.00273
  14.80699       0.031      0.00273
  14.81698       0.031      0.00273
  14.82697       0.030      0.00275
  14.83696       0.030      0.00276
  14.84695       0.031      0.00276
  14.85694       0.032      0.00278
  14.86693       0.032      0.00279
  14.87692       0.033      0.00280
  14.88691       0.034      0.00280
  14.89690       0.034      0.00282
  14.90689       0.037      0.00283
  14.91688       0.043      0.00284
  14.92687       0.052      0.00285
  14.93686       0.062      0.00287
  14.94685       0.075      0.00289
  14.95684       0.091      0.00291
  14.96683       0.106      0.00293
  14.97682       0.122      0.00295
  14.98682       0.139      0.00297
  14.99681       0.158      0.00299
  15.00680       0.179      0.00302
  15.01679       0.205      0.00304
  15.02678       0.239      0.00308
  15.03677       0.283      0.00311
  15.04676       0.336      0.00315
  15.05675       0.402      0.00321
  15.06674       0.482      0.00327
  15.07673       0.578      0.00333
  15.08672       0.690      0.00342
  15.09671       0.821      0.00351
  15.10670       0.972      0.00360
  15.11669       1.144      0.00372
  15.12668       1.335      0.00384
  15.13667       1.543      0.00396
  15.14666       1.767      0.00409
  15.15665       2.000      0.00423
  15.16665       2.237      0.00437
  15.17664       2.473      0.00449
  15.18663       2.699      0.00462
  15.19662       2.905      0.00474
  15.20661       3.088      0.00483
  15.21660       3.233      0.00493
  15.22659       3.338      0.00500
  15.23658       3.400      0.00502
  15.24657       3.424      0.00508
  15.25656       3.409      0.00510
  15.26655       3.359      0.00507
  15.27654       3.280      0.00507
  15.28653       3.172      0.00505
  15.29652       3.034      0.00498
  15.30651       2.877      0.00495
  15.31650       2.702      0.00488
  15.32649       2.513      0.00480
  15.33648       2.319      0.00473
  15.34648       2.125      0.00465
  15.35647       1.932      0.00455
  15.36646       1.747      0.00448
  15.37645       1.571      0.00440
  15.38644       1.404      0.00431
  15.39643       1.251      0.00424
  15.40642       1.111      0.00418
  15.41641       0.984      0.00411
  15.42640       0.870      0.00405
  15.43639       0.768      0.00401
  15.44638       0.678      0.00397
  15.45637       0.598      0.00393
  15.46636       0.529      0.00390
  15.47635       0.467      0.00388
  15.48634       0.411      0.00385
  15.49633       0.359      0.00383
  15.50632       0.310      0.00381
  15.51631       0.264      0.00380
  15.52630       0.224      0.00378
  15.53630       0.189      0.00378
  15.54629       0.163      0.00378
  15.55628       0.146      0.00378
  15.56627       0.136      0.00379
  15.57626       0.131      0.00381
  15.58625       0.130      0.00383
  15.59624       0.129      0.00385
  15.60623       0.129      0.00387
  15.61622       0.129      0.00389
  15.62621       0.130      0.00392
  15.63620       0.133      0.00394
  15.64619       0.138      0.00397
  15.65618       0.146      0.00400
  15.66617       0.157      0.00404
  15.67616       0.170      0.00407
  15.68615       0.185      0.00411
  15.69614       0.205      0.00415
  15.70613       0.230      0.00420
  15.71613       0.263      0.00425
  15.72612       0.303      0.00432
  15.73611       0.355      0.00439
  15.74610       0.419      0.00448
  15.75609       0.496      0.00457
  15.76608       0.592      0.00469
  15.77607       0.708      0.00481
  15.78606       0.849      0.00496
  15.79605       1.018      0.00514
  15.80604       1.217      0.00535
  15.81603       1.452      0.00556
  15.82602       1.724      0.00581
  15.83601       2.027      0.00608
  15.84600       2.368      0.00637
  15.85599       2.730      0.00668
  15.86598       3.111      0.00699
  15.87597       3.491      0.00729
  15.88596       3.859      0.00759
  15.89595       4.196      0.00788
  15.90595       4.487      0.00811
  15.91594       4.711      0.00832
  15.92593       4.857      0.00848
  15.93592       4.915      0.00860
  15.94591       4.877      0.00866
  15.95590       4.747      0.00865
  15.96589       4.530      0.00860
  15.97588       4.238      0.00850
  15.98587       3.890      0.00832
  15.99586       3.503      0.00815
  16.00585       3.101      0.00792
  16.01584       2.702      0.00770
  16.02583       2.319      0.00746
  16.03582       1.967      0.00724
  16.04581       1.651      0.00704
  16.05580       1.372      0.00684
  16.06579       1.135      0.00668
  16.07578       0.938      0.00656
  16.08578       0.778      0.00645
  16.09577       0.648      0.00640
  16.10576       0.545      0.00635
  16.11575       0.459      0.00632
  16.12574       0.385      0.00633
  16.13573       0.322      0.00632
  16.14572       0.266      0.00634
  16.15571       0.220      0.00637
  16.16570       0.183      0.00642
  16.17569       0.158      0.00649
  16.18568       0.143      0.00656
  16.19567       0.135      0.00666
  16.20566       0.131      0.00677
  16.21565       0.128      0.00689
  16.22564       0.124      0.00700
  16.23563       0.118      0.00713
  16.24562       0.110      0.00727
  16.25561       0.102      0.00739
  16.26561       0.095      0.00754
  16.27560       0.090      0.00772
  16.28559       0.085      0.00788
  16.29558       0.081      0.00808
  16.30557       0.081      0.00830
  16.31556       0.084      0.00854
  16.32555       0.089      0.00882
  16.33554       0.096      0.00910
  16.34553       0.100      0.00943
  16.35552       0.101      0.00977
  16.36551       0.095      0.01014
  16.37550       0.081      0.01053
  16.38549       0.059      0.01100
  16.39548       0.031      0.01149
  16.40547      -0.002      0.01209
  16.41546      -0.034      0.01271
  16.42545      -0.057      0.01348
  16.43544      -0.070      0.01420
  16.44543      -0.066      0.01508
  16.45543      -0.053      0.01591
  16.46542      -0.035      0.01691
  16.47541      -0.014      0.01807
  16.48540       0.006      0.01962
  16.49539       0.025      0.02144
  16.50538       0.043      0.02391
  16.51537       0.057      0.02737
  16.52536       0.064      0.03297
  16.53535       0.063      0.04158
  16.54534       0.063      0.06083
  16.55533       0.037      0.09528
  16.56532       0.024      0.25578
