  1.54056
   4.00939      -0.004      0.00177
   4.01938      -0.006      0.00177
   4.02938      -0.006      0.00176
   4.03937      -0.008      0.00176
   4.04937      -0.012      0.00176
   4.05937      -0.019      0.00175
   4.06936      -0.020      0.00175
   4.07936      -0.013      0.00175
   4.08935      -0.008      0.00175
   4.09935      -0.003      0.00174
   4.10935       0.005      0.00175
   4.11934       0.011      0.00174
   4.12934       0.010      0.00174
   4.13933       0.020      0.00174
   4.14933       0.021      0.00174
   4.15933       0.026      0.00174
   4.16932       0.036      0.00174
   4.17932       0.039      0.00173
   4.18931       0.041      0.00174
   4.19931       0.050      0.00174
   4.20931       0.051      0.00173
   4.21930       0.046      0.00173
   4.22930       0.046      0.00173
   4.23929       0.041      0.00172
   4.24929       0.037      0.00173
   4.25929       0.036      0.00172
   4.26928       0.031      0.00172
   4.27928       0.032      0.00172
   4.28927       0.041      0.00171
   4.29927       0.041      0.00171
   4.30927       0.043      0.00171
   4.31926       0.045      0.00171
   4.32926       0.040      0.00171
   4.33925       0.036      0.00170
   4.34925       0.036      0.00170
   4.35925       0.033      0.00170
   4.36924       0.035      0.00170
   4.37924       0.038      0.00169
   4.38923       0.044      0.00170
   4.39923       0.036      0.00169
   4.40923       0.036      0.00169
   4.41922       0.036      0.00169
   4.42922       0.035      0.00168
   4.43921       0.037      0.00168
   4.44921       0.044      0.00169
   4.45921       0.049      0.00168
   4.46920       0.051      0.00168
   4.47920       0.051      0.00168
   4.48919       0.049      0.00167
   4.49919       0.038      0.00167
   4.50919       0.042      0.00167
   4.51918       0.037      0.00167
   4.52918       0.031      0.00167
   4.53917       0.031      0.00166
   4.54917       0.033      0.00166
   4.55917       0.030      0.00166
   4.56916       0.033      0.00166
   4.57916       0.038      0.00166
   4.58915       0.038      0.00166
   4.59915       0.043      0.00165
   4.60915       0.042      0.00165
   4.61914       0.042      0.00165
   4.62914       0.040      0.00165
   4.63913       0.040      0.00165
   4.64913       0.036      0.00165
   4.65912       0.036      0.00164
   4.66912       0.029      0.00164
   4.67912       0.028      0.00164
   4.68911       0.029      0.00164
   4.69911       0.029      0.00163
   4.70910       0.031      0.00163
   4.71910       0.039      0.00163
   4.72910       0.037      0.00163
   4.73909       0.036      0.00163
   4.74909       0.034      0.00163
   4.75908       0.035      0.00163
   4.76908       0.033      0.00163
   4.77908       0.033      0.00162
   4.78907       0.036      0.00162
   4.79907       0.038      0.00162
   4.80906       0.038      0.00162
   4.81906       0.045      0.00162
   4.82906       0.049      0.00162
   4.83905       0.049      0.00162
   4.84905       0.054      0.00162
   4.85904       0.056      0.00162
   4.86904       0.055      0.00162
   4.87904       0.050      0.00161
   4.88903       0.047      0.00161
   4.89903       0.039      0.00161
   4.90902       0.038      0.00160
   4.91902       0.037      0.00160
   4.92902       0.033      0.00160
   4.93901       0.028      0.00160
   4.94901       0.026      0.00159
   4.95900       0.022      0.00160
   4.96900       0.017      0.00159
   4.97900       0.013      0.00159
   4.98899       0.019      0.00159
   4.99899       0.023      0.00158
   5.00898       0.018      0.00158
   5.01898       0.020      0.00158
   5.02898       0.023      0.00158
   5.03897       0.021      0.00158
   5.04897       0.026      0.00158
   5.05896       0.035      0.00158
   5.06896       0.041      0.00158
   5.07896       0.044      0.00158
   5.08895       0.049      0.00158
   5.09895       0.047      0.00158
   5.10894       0.046      0.00157
   5.11894       0.042      0.00157
   5.12894       0.039      0.00157
   5.13893       0.033      0.00157
   5.14893       0.029      0.00156
   5.15892       0.035      0.00157
   5.16892       0.033      0.00156
   5.17892       0.033      0.00156
   5.18891       0.038      0.00156
   5.19891       0.037      0.00156
   5.20890       0.035      0.00155
   5.21890       0.037      0.00156
   5.22890       0.034      0.00155
   5.23889       0.033      0.00155
   5.24889       0.035      0.00155
   5.25888       0.031      0.00155
   5.26888       0.028      0.00155
   5.27888       0.032      0.00155
   5.28887       0.029      0.00154
   5.29887       0.032      0.00155
   5.30886       0.036      0.00154
   5.31886       0.036      0.00154
   5.32886       0.036      0.00154
   5.33885       0.038      0.00154
   5.34885       0.036      0.00153
   5.35884       0.041      0.00154
   5.36884       0.041      0.00153
   5.37884       0.037      0.00153
   5.38883       0.040      0.00153
   5.39883       0.037      0.00153
   5.40882       0.034      0.00153
   5.41882       0.036      0.00153
   5.42882       0.036      0.00152
   5.43881       0.036      0.00153
   5.44881       0.039      0.00152
   5.45880       0.035      0.00152
   5.46880       0.029      0.00152
   5.47879       0.029      0.00151
   5.48879       0.023      0.00151
   5.49879       0.018      0.00151
   5.50878       0.022      0.00151
   5.51878       0.018      0.00151
   5.52877       0.015      0.00151
   5.53877       0.014      0.00150
   5.54877       0.010      0.00150
   5.55876       0.007      0.00150
   5.56876       0.007      0.00150
   5.57875       0.005      0.00150
   5.58875       0.010      0.00150
   5.59875       0.013      0.00150
   5.60874       0.017      0.00150
   5.61874       0.019      0.00150
   5.62873       0.022      0.00150
   5.63873       0.023      0.00150
   5.64873       0.023      0.00149
   5.65872       0.020      0.00149
   5.66872       0.020      0.00149
   5.67871       0.016      0.00149
   5.68871       0.008      0.00148
   5.69871       0.010      0.00149
   5.70870       0.012      0.00148
   5.71870       0.013      0.00148
   5.72869       0.020      0.00148
   5.73869       0.031      0.00148
   5.74869       0.031      0.00148
   5.75868       0.031      0.00148
   5.76868       0.032      0.00148
   5.77867       0.033      0.00148
   5.78867       0.034      0.00148
   5.79867       0.034      0.00148
   5.80866       0.038      0.00148
   5.81866       0.032      0.00147
   5.82865       0.027      0.00147
   5.83865       0.026      0.00147
   5.84865       0.020      0.00147
   5.85864       0.015      0.00146
   5.86864       0.017      0.00146
   5.87863       0.017      0.00146
   5.88863       0.012      0.00146
   5.89863       0.016      0.00146
   5.90862       0.017      0.00146
   5.91862       0.013      0.00146
   5.92861       0.018      0.00146
   5.93861       0.018      0.00145
   5.94861       0.017      0.00145
   5.95860       0.024      0.00145
   5.96860       0.026      0.00145
   5.97859       0.029      0.00145
   5.98859       0.036      0.00145
   5.99859       0.037      0.00145
   6.00858       0.040      0.00145
   6.01858       0.049      0.00145
   6.02857       0.048      0.00145
   6.03857       0.056      0.00145
   6.04857       0.063      0.00145
   6.05856       0.067      0.00145
   6.06856       0.071      0.00145
   6.07855       0.077      0.00145
   6.08855       0.080      0.00145
   6.09855       0.085      0.00145
   6.10854       0.084      0.00145
   6.11854       0.091      0.00145
   6.12853       0.095      0.00145
   6.13853       0.099      0.00144
   6.14853       0.110      0.00145
   6.15852       0.124      0.00145
   6.16852       0.132      0.00144
   6.17851       0.147      0.00145
   6.18851       0.169      0.00145
   6.19851       0.185      0.00145
   6.20850       0.217      0.00145
   6.21850       0.259      0.00146
   6.22849       0.309      0.00146
   6.23849       0.373      0.00148
   6.24849       0.455      0.00148
   6.25848       0.549      0.00150
   6.26848       0.685      0.00151
   6.27847       0.857      0.00153
   6.28847       1.082      0.00156
   6.29847       1.379      0.00160
   6.30846       1.748      0.00164
   6.31846       2.218      0.00170
   6.32845       2.802      0.00176
   6.33845       3.488      0.00184
   6.34844       4.328      0.00193
   6.35844       5.310      0.00202
   6.36844       6.405      0.00213
   6.37843       7.638      0.00224
   6.38843       8.975      0.00235
   6.39842      10.350      0.00246
   6.40842      11.807      0.00258
   6.41842      13.226      0.00268
   6.42841      14.586      0.00278
   6.43841      15.855      0.00287
   6.44840      16.983      0.00294
   6.45840      17.873      0.00300
   6.46840      18.556      0.00304
   6.47839      18.957      0.00306
   6.48839      19.063      0.00307
   6.49838      18.876      0.00305
   6.50838      18.418      0.00302
   6.51838      17.676      0.00297
   6.52837      16.675      0.00290
   6.53837      15.505      0.00282
   6.54836      14.173      0.00273
   6.55836      12.720      0.00261
   6.56836      11.271      0.00250
   6.57835       9.796      0.00239
   6.58835       8.395      0.00226
   6.59834       7.072      0.00215
   6.60834       5.863      0.00204
   6.61834       4.788      0.00193
   6.62833       3.855      0.00183
   6.63833       3.055      0.00175
   6.64832       2.400      0.00167
   6.65832       1.864      0.00161
   6.66832       1.430      0.00156
   6.67831       1.100      0.00152
   6.68831       0.844      0.00148
   6.69830       0.649      0.00146
   6.70830       0.506      0.00144
   6.71830       0.401      0.00142
   6.72829       0.318      0.00141
   6.73829       0.263      0.00140
   6.74828       0.224      0.00140
   6.75828       0.188      0.00139
   6.76828       0.164      0.00139
   6.77827       0.147      0.00138
   6.78827       0.133      0.00138
   6.79826       0.122      0.00138
   6.80826       0.113      0.00138
   6.81826       0.101      0.00137
   6.82825       0.094      0.00137
   6.83825       0.082      0.00137
   6.84824       0.069      0.00136
   6.85824       0.063      0.00136
   6.86824       0.052      0.00136
   6.87823       0.046      0.00136
   6.88823       0.045      0.00136
   6.89822       0.036      0.00135
   6.90822       0.035      0.00135
   6.91822       0.039      0.00135
   6.92821       0.040      0.00135
   6.93821       0.039      0.00135
   6.94820       0.045      0.00135
   6.95820       0.041      0.00135
   6.96820       0.041      0.00135
   6.97819       0.040      0.00135
   6.98819       0.033      0.00135
   6.99818       0.033      0.00134
   7.00818       0.027      0.00134
   7.01818       0.018      0.00134
   7.02817       0.019      0.00134
   7.03817       0.015      0.00133
   7.04816       0.011      0.00133
   7.05816       0.013      0.00133
   7.06816       0.012      0.00133
   7.07815       0.007      0.00133
   7.08815       0.010      0.00133
   7.09814       0.011      0.00133
   7.10814       0.011      0.00133
   7.11814       0.013      0.00133
   7.12813       0.013      0.00133
   7.13813       0.012      0.00133
   7.14812       0.010      0.00132
   7.15812       0.009      0.00132
   7.16811       0.009      0.00132
   7.17811       0.005      0.00132
   7.18811       0.003      0.00132
   7.19810       0.005      0.00132
   7.20810       0.001      0.00131
   7.21809      -0.002      0.00131
   7.22809       0.005      0.00131
   7.23809       0.005      0.00131
   7.24808       0.004      0.00131
   7.25808       0.006      0.00131
   7.26807       0.004      0.00131
   7.27807       0.007      0.00131
   7.28807       0.008      0.00131
   7.29806       0.005      0.00131
   7.30806       0.008      0.00131
   7.31805       0.010      0.00131
   7.32805       0.008      0.00131
   7.33805       0.011      0.00131
   7.34804       0.011      0.00130
   7.35804       0.011      0.00130
   7.36803       0.013      0.00130
   7.37803       0.012      0.00130
   7.38803       0.007      0.00130
   7.39802       0.011      0.00130
   7.40802       0.007      0.00130
   7.41801       0.005      0.00130
   7.42801       0.007      0.00130
   7.43801       0.003      0.00129
   7.44800       0.005      0.00129
   7.45800       0.005      0.00129
   7.46799       0.003      0.00129
   7.47799       0.003      0.00129
   7.48799       0.001      0.00129
   7.49798      -0.000      0.00129
   7.50798       0.000      0.00129
   7.51797      -0.001      0.00129
   7.52797       0.002      0.00129
   7.53797       0.005      0.00129
   7.54796       0.001      0.00129
   7.55796       0.003      0.00128
   7.56795       0.003      0.00128
   7.57795      -0.002      0.00128
   7.58795      -0.001      0.00128
   7.59794       0.002      0.00128
   7.60794      -0.005      0.00128
   7.61793      -0.003      0.00128
   7.62793      -0.003      0.00128
   7.63793      -0.007      0.00128
   7.64792      -0.003      0.00128
   7.65792       0.001      0.00128
   7.66791       0.004      0.00128
   7.67791       0.013      0.00128
   7.68791       0.014      0.00128
   7.69790       0.013      0.00127
   7.70790       0.015      0.00127
   7.71789       0.011      0.00127
   7.72789       0.007      0.00127
   7.73789       0.006      0.00127
   7.74788       0.001      0.00127
   7.75788       0.001      0.00127
   7.76787       0.001      0.00127
   7.77787      -0.000      0.00127
   7.78787       0.004      0.00127
   7.79786       0.005      0.00126
   7.80786       0.005      0.00126
   7.81785       0.010      0.00126
   7.82785       0.010      0.00126
   7.83785       0.008      0.00126
   7.84784       0.013      0.00126
   7.85784       0.011      0.00126
   7.86783       0.010      0.00126
   7.87783       0.010      0.00126
   7.88783       0.005      0.00126
   7.89782       0.005      0.00126
   7.90782       0.007      0.00126
   7.91781       0.004      0.00126
   7.92781       0.005      0.00125
   7.93781       0.006      0.00125
   7.94780       0.004      0.00125
   7.95780       0.010      0.00125
   7.96779       0.009      0.00125
   7.97779       0.010      0.00125
   7.98778       0.014      0.00125
   7.99778       0.013      0.00125
   8.00778       0.010      0.00125
   8.01777       0.010      0.00125
   8.02777       0.007      0.00125
   8.03776       0.005      0.00125
   8.04776       0.005      0.00124
   8.05776       0.002      0.00124
   8.06775       0.007      0.00124
   8.07775       0.005      0.00124
   8.08774       0.005      0.00124
   8.09774       0.007      0.00124
   8.10774       0.004      0.00124
   8.11773       0.003      0.00124
   8.12773       0.006      0.00124
   8.13772       0.003      0.00124
   8.14772       0.002      0.00124
   8.15772       0.006      0.00124
   8.16771       0.003      0.00124
   8.17771       0.007      0.00123
   8.18770       0.009      0.00124
   8.19770       0.005      0.00123
   8.20770       0.009      0.00123
   8.21769       0.008      0.00123
   8.22769       0.001      0.00123
   8.23768       0.004      0.00123
   8.24768       0.002      0.00123
   8.25768      -0.001      0.00123
   8.26767       0.001      0.00123
   8.27767       0.001      0.00123
   8.28766      -0.002      0.00123
   8.29766      -0.000      0.00123
   8.30766       0.001      0.00123
   8.31765       0.004      0.00122
   8.32765       0.006      0.00123
   8.33764       0.009      0.00122
   8.34764       0.013      0.00122
   8.35764       0.011      0.00122
   8.36763       0.010      0.00122
   8.37763       0.011      0.00122
   8.38762       0.005      0.00122
   8.39762       0.000      0.00122
   8.40762       0.003      0.00122
   8.41761      -0.001      0.00122
   8.42761      -0.006      0.00121
   8.43760      -0.004      0.00121
   8.44760      -0.003      0.00121
   8.45760      -0.000      0.00121
   8.46759       0.006      0.00121
   8.47759       0.009      0.00121
   8.48758       0.019      0.00121
   8.49758       0.020      0.00121
   8.50758       0.019      0.00121
   8.51757       0.025      0.00121
   8.52757       0.023      0.00121
   8.53756       0.021      0.00121
   8.54756       0.024      0.00121
   8.55756       0.021      0.00121
   8.56755       0.020      0.00121
   8.57755       0.021      0.00121
   8.58754       0.016      0.00121
   8.59754       0.016      0.00121
   8.60754       0.015      0.00121
   8.61753       0.009      0.00120
   8.62753       0.012      0.00120
   8.63752       0.010      0.00120
   8.64752       0.007      0.00120
   8.65752       0.014      0.00120
   8.66751       0.018      0.00120
   8.67751       0.016      0.00120
   8.68750       0.020      0.00120
   8.69750       0.020      0.00120
   8.70750       0.018      0.00120
   8.71749       0.021      0.00120
   8.72749       0.016      0.00120
   8.73748       0.012      0.00120
   8.74748       0.009      0.00120
   8.75748       0.001      0.00119
   8.76747      -0.000      0.00119
   8.77747      -0.007      0.00119
   8.78746      -0.008      0.00119
   8.79746      -0.005      0.00119
   8.80746      -0.003      0.00119
   8.81745      -0.003      0.00119
   8.82745       0.005      0.00119
   8.83744       0.008      0.00119
   8.84744       0.011      0.00119
   8.85743       0.016      0.00119
   8.86743       0.015      0.00119
   8.87743       0.015      0.00119
   8.88742       0.014      0.00119
   8.89742       0.010      0.00119
   8.90741       0.011      0.00119
   8.91741       0.010      0.00119
   8.92741       0.008      0.00118
   8.93740       0.009      0.00118
   8.94740       0.007      0.00118
   8.95739       0.004      0.00118
   8.96739       0.007      0.00118
   8.97739       0.006      0.00118
   8.98738       0.005      0.00118
   8.99738       0.010      0.00118
   9.00737       0.009      0.00118
   9.01737       0.011      0.00118
   9.02737       0.013      0.00118
   9.03736       0.011      0.00118
   9.04736       0.015      0.00118
   9.05735       0.012      0.00118
   9.06735       0.011      0.00118
   9.07735       0.013      0.00118
   9.08734       0.009      0.00118
   9.09734       0.008      0.00117
   9.10733       0.011      0.00117
   9.11733       0.009      0.00117
   9.12733       0.010      0.00117
   9.13732       0.012      0.00117
   9.14732       0.008      0.00117
   9.15731       0.007      0.00117
   9.16731       0.006      0.00117
   9.17731      -0.000      0.00117
   9.18730      -0.001      0.00117
   9.19730      -0.003      0.00117
   9.20729      -0.005      0.00117
   9.21729      -0.002      0.00117
   9.22729      -0.005      0.00117
   9.23728      -0.004      0.00117
   9.24728      -0.001      0.00117
   9.25727      -0.003      0.00117
   9.26727       0.003      0.00117
   9.27727       0.004      0.00116
   9.28726       0.008      0.00117
   9.29726       0.013      0.00116
   9.30725       0.015      0.00117
   9.31725       0.014      0.00116
   9.32725       0.015      0.00116
   9.33724       0.011      0.00116
   9.34724       0.009      0.00116
   9.35723       0.009      0.00116
   9.36723       0.002      0.00116
   9.37723      -0.000      0.00116
   9.38722       0.003      0.00116
   9.39722      -0.004      0.00116
   9.40721      -0.001      0.00116
   9.41721       0.003      0.00116
   9.42721       0.003      0.00116
   9.43720       0.007      0.00116
   9.44720       0.008      0.00116
   9.45719       0.010      0.00116
   9.46719       0.013      0.00116
   9.47719       0.012      0.00116
   9.48718       0.012      0.00116
   9.49718       0.014      0.00116
   9.50717       0.010      0.00116
   9.51717       0.008      0.00115
   9.52717       0.007      0.00115
   9.53716      -0.001      0.00115
   9.54716       0.002      0.00115
   9.55715      -0.001      0.00115
   9.56715      -0.004      0.00115
   9.57715      -0.002      0.00115
   9.58714       0.000      0.00115
   9.59714       0.001      0.00115
   9.60713       0.004      0.00115
   9.61713       0.003      0.00115
   9.62713       0.002      0.00115
   9.63712       0.003      0.00115
   9.64712      -0.001      0.00115
   9.65711      -0.001      0.00115
   9.66711       0.001      0.00115
   9.67710      -0.001      0.00115
   9.68710       0.000      0.00114
   9.69710       0.002      0.00114
   9.70709      -0.002      0.00114
   9.71709       0.001      0.00114
   9.72708       0.001      0.00114
   9.73708      -0.003      0.00114
   9.74708      -0.002      0.00114
   9.75707      -0.002      0.00114
   9.76707      -0.005      0.00114
   9.77706      -0.001      0.00114
   9.78706      -0.002      0.00114
   9.79706      -0.000      0.00114
   9.80705      -0.001      0.00114
   9.81705      -0.001      0.00114
   9.82704      -0.002      0.00114
   9.83704      -0.005      0.00114
   9.84704      -0.005      0.00114
   9.85703      -0.004      0.00114
   9.86703      -0.007      0.00114
   9.87702      -0.007      0.00113
   9.88702      -0.003      0.00114
   9.89702      -0.004      0.00114
   9.90701       0.000      0.00114
   9.91701       0.003      0.00114
   9.92700       0.004      0.00114
   9.93700       0.007      0.00114
   9.94700       0.012      0.00115
   9.95699       0.012      0.00115
   9.96699       0.016      0.00115
   9.97698       0.018      0.00116
   9.98698       0.015      0.00116
   9.99698       0.019      0.00116
  10.00697       0.015      0.00116
  10.01697       0.012      0.00116
  10.02696       0.017      0.00116
  10.03696       0.015      0.00116
  10.04696       0.011      0.00116
  10.05695       0.012      0.00116
  10.06695       0.009      0.00116
  10.07694       0.007      0.00116
  10.08694       0.005      0.00117
  10.09694       0.002      0.00117
  10.10693       0.003      0.00117
  10.11693       0.002      0.00117
  10.12692       0.001      0.00117
  10.13692       0.006      0.00117
  10.14692       0.007      0.00117
  10.15691       0.006      0.00117
  10.16691       0.007      0.00117
  10.17690       0.009      0.00117
  10.18690       0.009      0.00117
  10.19690       0.009      0.00117
  10.20689       0.011      0.00117
  10.21689       0.011      0.00117
  10.22688       0.011      0.00117
  10.23688       0.008      0.00117
  10.24688       0.008      0.00118
  10.25687       0.005      0.00118
  10.26687       0.006      0.00118
  10.27686       0.007      0.00118
  10.28686       0.001      0.00118
  10.29686       0.001      0.00118
  10.30685       0.001      0.00118
  10.31685      -0.002      0.00118
  10.32684       0.003      0.00118
  10.33684       0.002      0.00118
  10.34684       0.002      0.00118
  10.35683       0.007      0.00118
  10.36683       0.004      0.00118
  10.37682       0.002      0.00118
  10.38682       0.005      0.00118
  10.39682       0.009      0.00118
  10.40681       0.011      0.00118
  10.41681       0.014      0.00118
  10.42680       0.014      0.00119
  10.43680       0.016      0.00118
  10.44680       0.012      0.00118
  10.45679       0.011      0.00119
  10.46679       0.011      0.00118
  10.47678       0.005      0.00118
  10.48678       0.002      0.00118
  10.49678       0.004      0.00118
  10.50677      -0.001      0.00118
  10.51677       0.000      0.00118
  10.52676       0.005      0.00118
  10.53676       0.003      0.00119
  10.54675       0.006      0.00118
  10.55675       0.007      0.00119
  10.56675       0.006      0.00119
  10.57674       0.008      0.00119
  10.58674       0.007      0.00119
  10.59673       0.005      0.00119
  10.60673       0.005      0.00119
  10.61673       0.002      0.00119
  10.62672      -0.003      0.00118
  10.63672      -0.002      0.00119
  10.64671      -0.004      0.00119
  10.65671      -0.001      0.00119
  10.66671       0.003      0.00119
  10.67670       0.001      0.00119
  10.68670       0.004      0.00119
  10.69669       0.005      0.00119
  10.70669       0.005      0.00119
  10.71669       0.008      0.00119
  10.72668       0.009      0.00119
  10.73668       0.010      0.00119
  10.74667       0.013      0.00120
  10.75667       0.012      0.00120
  10.76667       0.010      0.00120
  10.77666       0.006      0.00121
  10.78666       0.003      0.00121
  10.79665       0.004      0.00121
  10.80665       0.001      0.00121
  10.81665      -0.001      0.00121
  10.82664       0.002      0.00121
  10.83664       0.004      0.00122
  10.84663       0.006      0.00122
  10.85663       0.008      0.00122
  10.86663       0.006      0.00122
  10.87662       0.006      0.00122
  10.88662       0.006      0.00122
  10.89661       0.001      0.00122
  10.90661       0.002      0.00122
  10.91661      -0.000      0.00122
  10.92660      -0.004      0.00122
  10.93660       0.002      0.00123
  10.94659       0.002      0.00123
  10.95659      -0.001      0.00123
  10.96659       0.004      0.00123
  10.97658       0.005      0.00123
  10.98658       0.004      0.00123
  10.99657       0.007      0.00124
  11.00657       0.009      0.00124
  11.01657       0.010      0.00124
  11.02656       0.010      0.00124
  11.03656       0.010      0.00124
  11.04655       0.010      0.00124
  11.05655       0.009      0.00125
  11.06655       0.007      0.00125
  11.07654       0.010      0.00125
  11.08654       0.005      0.00126
  11.09653       0.003      0.00127
  11.10653       0.004      0.00127
  11.11653      -0.000      0.00127
  11.12652      -0.003      0.00127
  11.13652      -0.004      0.00128
  11.14651      -0.008      0.00128
  11.15651      -0.008      0.00128
  11.16651      -0.008      0.00128
  11.17650      -0.007      0.00129
  11.18650      -0.003      0.00129
  11.19649      -0.004      0.00129
  11.20649      -0.004      0.00129
  11.21649       0.001      0.00130
  11.22648      -0.003      0.00130
  11.23648      -0.000      0.00130
  11.24647       0.006      0.00130
  11.25647       0.006      0.00131
  11.26647       0.008      0.00131
  11.27646       0.011      0.00131
  11.28646       0.009      0.00132
  11.29645       0.014      0.00132
  11.30645       0.014      0.00132
  11.31645       0.019      0.00133
  11.32644       0.023      0.00133
  11.33644       0.018      0.00133
  11.34643       0.025      0.00133
  11.35643       0.026      0.00134
  11.36642       0.018      0.00134
  11.37642       0.024      0.00134
  11.38642       0.027      0.00134
  11.39641       0.017      0.00134
  11.40641       0.021      0.00135
  11.41640       0.019      0.00135
  11.42640       0.007      0.00135
  11.43640       0.006      0.00135
  11.44639       0.004      0.00135
  11.45639      -0.001      0.00136
  11.46638      -0.002      0.00136
  11.47638      -0.002      0.00136
  11.48638       0.000      0.00136
  11.49637      -0.007      0.00136
  11.50637      -0.007      0.00137
  11.51636      -0.003      0.00137
  11.52636      -0.009      0.00137
  11.53636      -0.000      0.00137
  11.54635       0.006      0.00138
  11.55635       0.001      0.00138
  11.56634       0.004      0.00138
  11.57634       0.004      0.00138
  11.58634      -0.007      0.00138
  11.59633      -0.001      0.00139
  11.60633      -0.000      0.00139
  11.61632      -0.011      0.00139
  11.62632      -0.001      0.00139
  11.63632       0.000      0.00139
  11.64631      -0.004      0.00140
  11.65631       0.006      0.00140
  11.66630       0.008      0.00140
  11.67630       0.010      0.00141
  11.68630       0.014      0.00141
  11.69629       0.018      0.00141
  11.70629       0.021      0.00141
  11.71628       0.022      0.00142
  11.72628       0.022      0.00142
  11.73628       0.022      0.00142
  11.74627       0.017      0.00142
  11.75627       0.016      0.00143
  11.76626       0.020      0.00143
  11.77626       0.016      0.00143
  11.78626       0.018      0.00143
  11.79625       0.020      0.00143
  11.80625       0.011      0.00144
  11.81624       0.016      0.00144
  11.82624       0.014      0.00144
  11.83624       0.009      0.00144
  11.84623       0.013      0.00144
  11.85623       0.012      0.00145
  11.86622       0.008      0.00145
  11.87622       0.015      0.00145
  11.88622       0.018      0.00145
  11.89621       0.021      0.00146
  11.90621       0.026      0.00146
  11.91620       0.025      0.00146
  11.92620       0.026      0.00146
  11.93620       0.025      0.00146
  11.94619       0.021      0.00147
  11.95619       0.026      0.00147
  11.96618       0.022      0.00147
  11.97618       0.017      0.00147
  11.98618       0.018      0.00147
  11.99617       0.010      0.00147
  12.00617       0.002      0.00147
  12.01616      -0.000      0.00148
  12.02616      -0.004      0.00148
  12.03616      -0.003      0.00148
  12.04615      -0.001      0.00148
  12.05615       0.001      0.00148
  12.06614       0.001      0.00149
  12.07614       0.004      0.00149
  12.08614       0.007      0.00149
  12.09613       0.010      0.00150
  12.10613       0.016      0.00150
  12.11612       0.023      0.00150
  12.12612       0.021      0.00150
  12.13612       0.019      0.00151
  12.14611       0.023      0.00151
  12.15611       0.014      0.00151
  12.16610       0.009      0.00151
  12.17610       0.010      0.00151
  12.18610       0.005      0.00151
  12.19609       0.004      0.00151
  12.20609       0.006      0.00152
  12.21608       0.000      0.00152
  12.22608       0.008      0.00152
  12.23607       0.007      0.00152
  12.24607       0.006      0.00153
  12.25607       0.014      0.00153
  12.26606       0.017      0.00153
  12.27606       0.014      0.00153
  12.28605       0.019      0.00154
  12.29605       0.013      0.00154
  12.30605       0.006      0.00154
  12.31604       0.008      0.00154
  12.32604       0.003      0.00154
  12.33603       0.002      0.00154
  12.34603       0.004      0.00155
  12.35603      -0.002      0.00155
  12.36602      -0.005      0.00155
  12.37602      -0.010      0.00155
  12.38601      -0.017      0.00155
  12.39601      -0.017      0.00155
  12.40601      -0.019      0.00155
  12.41600      -0.009      0.00156
  12.42600      -0.006      0.00156
  12.43599      -0.006      0.00156
  12.44599       0.001      0.00157
  12.45599       0.004      0.00157
  12.46598       0.002      0.00157
  12.47598       0.011      0.00158
  12.48597       0.015      0.00158
  12.49597       0.020      0.00158
  12.50597       0.024      0.00159
  12.51596       0.022      0.00159
  12.52596       0.022      0.00159
  12.53595       0.018      0.00159
  12.54595       0.017      0.00159
  12.55595       0.021      0.00160
  12.56594       0.012      0.00160
  12.57594       0.005      0.00160
  12.58593       0.005      0.00160
  12.59593      -0.002      0.00160
  12.60593      -0.004      0.00160
  12.61592      -0.006      0.00161
  12.62592      -0.014      0.00161
  12.63591      -0.012      0.00161
  12.64591      -0.019      0.00161
  12.65591      -0.029      0.00161
  12.66590      -0.012      0.00162
  12.67590       0.013      0.00163
  12.68589       0.021      0.00164
  12.69589       0.051      0.00165
  12.70589       0.073      0.00166
  12.71588       0.086      0.00167
  12.72588       0.100      0.00168
  12.73587       0.117      0.00169
  12.74587       0.135      0.00170
  12.75587       0.153      0.00171
  12.76586       0.170      0.00172
  12.77586       0.186      0.00173
  12.78585       0.200      0.00174
  12.79585       0.211      0.00175
  12.80585       0.220      0.00176
  12.81584       0.228      0.00177
  12.82584       0.233      0.00177
  12.83583       0.239      0.00178
  12.84583       0.245      0.00179
  12.85583       0.251      0.00180
  12.86582       0.257      0.00180
  12.87582       0.264      0.00181
  12.88581       0.271      0.00182
  12.89581       0.277      0.00183
  12.90581       0.283      0.00183
  12.91580       0.288      0.00184
  12.92580       0.293      0.00185
  12.93579       0.297      0.00185
  12.94579       0.302      0.00186
  12.95579       0.304      0.00187
  12.96578       0.306      0.00187
  12.97578       0.306      0.00188
  12.98577       0.305      0.00189
  12.99577       0.303      0.00189
  13.00577       0.301      0.00190
  13.01576       0.298      0.00190
  13.02576       0.293      0.00191
  13.03575       0.287      0.00191
  13.04575       0.279      0.00192
  13.05574       0.269      0.00192
  13.06574       0.257      0.00193
  13.07574       0.243      0.00193
  13.08573       0.229      0.00194
  13.09573       0.216      0.00194
  13.10572       0.205      0.00195
  13.11572       0.197      0.00195
  13.12572       0.188      0.00196
  13.13571       0.180      0.00196
  13.14571       0.172      0.00197
  13.15570       0.165      0.00197
  13.16570       0.157      0.00198
  13.17570       0.149      0.00198
  13.18569       0.143      0.00199
  13.19569       0.138      0.00200
  13.20568       0.134      0.00200
  13.21568       0.133      0.00201
  13.22568       0.133      0.00201
  13.23567       0.133      0.00202
  13.24567       0.134      0.00203
  13.25566       0.135      0.00203
  13.26566       0.135      0.00204
  13.27566       0.135      0.00205
  13.28565       0.135      0.00205
  13.29565       0.134      0.00206
  13.30564       0.134      0.00207
  13.31564       0.135      0.00208
  13.32564       0.136      0.00208
  13.33563       0.136      0.00209
  13.34563       0.136      0.00209
  13.35562       0.135      0.00210
  13.36562       0.133      0.00211
  13.37562       0.130      0.00211
  13.38561       0.127      0.00212
  13.39561       0.124      0.00213
  13.40560       0.123      0.00213
  13.41560       0.123      0.00214
  13.42560       0.124      0.00215
  13.43559       0.127      0.00215
  13.44559       0.131      0.00216
  13.45558       0.136      0.00217
  13.46558       0.142      0.00218
  13.47558       0.149      0.00219
  13.48557       0.154      0.00219
  13.49557       0.158      0.00220
  13.50556       0.159      0.00221
  13.51556       0.158      0.00221
  13.52556       0.153      0.00222
  13.53555       0.148      0.00223
  13.54555       0.142      0.00224
  13.55554       0.137      0.00224
  13.56554       0.134      0.00225
  13.57554       0.133      0.00226
  13.58553       0.133      0.00226
  13.59553       0.135      0.00227
  13.60552       0.140      0.00228
  13.61552       0.146      0.00229
  13.62552       0.153      0.00230
  13.63551       0.162      0.00231
  13.64551       0.173      0.00232
  13.65550       0.184      0.00232
  13.66550       0.197      0.00233
  13.67550       0.213      0.00235
  13.68549       0.233      0.00236
  13.69549       0.258      0.00237
  13.70548       0.290      0.00238
  13.71548       0.330      0.00240
  13.72548       0.378      0.00241
  13.73547       0.436      0.00243
  13.74547       0.504      0.00245
  13.75546       0.582      0.00247
  13.76546       0.674      0.00249
  13.77546       0.783      0.00252
  13.78545       0.911      0.00255
  13.79545       1.058      0.00258
  13.80544       1.234      0.00262
  13.81544       1.433      0.00266
  13.82544       1.663      0.00270
  13.83543       1.918      0.00276
  13.84543       2.199      0.00281
  13.85542       2.504      0.00286
  13.86542       2.827      0.00292
  13.87541       3.168      0.00298
  13.88541       3.525      0.00304
  13.89541       3.892      0.00311
  13.90540       4.261      0.00317
  13.91540       4.627      0.00323
  13.92539       4.983      0.00329
  13.93539       5.320      0.00335
  13.94539       5.626      0.00340
  13.95538       5.893      0.00345
  13.96538       6.121      0.00349
  13.97537       6.300      0.00353
  13.98537       6.426      0.00356
  13.99537       6.501      0.00358
  14.00536       6.524      0.00360
  14.01536       6.498      0.00360
  14.02535       6.421      0.00361
  14.03535       6.298      0.00360
  14.04535       6.134      0.00360
  14.05534       5.926      0.00357
  14.06534       5.688      0.00356
  14.07533       5.424      0.00354
  14.08533       5.137      0.00351
  14.09533       4.832      0.00348
  14.10532       4.519      0.00345
  14.11532       4.204      0.00342
  14.12531       3.892      0.00337
  14.13531       3.586      0.00334
  14.14531       3.293      0.00331
  14.15530       3.015      0.00328
  14.16530       2.754      0.00325
  14.17529       2.515      0.00322
  14.18529       2.294      0.00320
  14.19529       2.096      0.00318
  14.20528       1.919      0.00316
  14.21528       1.771      0.00314
  14.22527       1.645      0.00314
  14.23527       1.549      0.00313
  14.24527       1.487      0.00313
  14.25526       1.459      0.00314
  14.26526       1.468      0.00316
  14.27525       1.520      0.00318
  14.28525       1.615      0.00321
  14.29525       1.753      0.00325
  14.30524       1.941      0.00330
  14.31524       2.180      0.00335
  14.32523       2.463      0.00342
  14.33523       2.793      0.00349
  14.34523       3.176      0.00357
  14.35522       3.604      0.00366
  14.36522       4.069      0.00376
  14.37521       4.561      0.00386
  14.38521       5.084      0.00395
  14.39521       5.606      0.00406
  14.40520       6.127      0.00416
  14.41520       6.621      0.00426
  14.42519       7.074      0.00434
  14.43519       7.481      0.00443
  14.44519       7.823      0.00451
  14.45518       8.088      0.00456
  14.46518       8.266      0.00460
  14.47517       8.354      0.00464
  14.48517       8.345      0.00466
  14.49517       8.236      0.00467
  14.50516       8.036      0.00465
  14.51516       7.744      0.00463
  14.52515       7.370      0.00459
  14.53515       6.938      0.00453
  14.54515       6.468      0.00448
  14.55514       5.945      0.00440
  14.56514       5.415      0.00434
  14.57513       4.879      0.00426
  14.58513       4.365      0.00419
  14.59513       3.836      0.00410
  14.60512       3.356      0.00403
  14.61512       2.900      0.00397
  14.62511       2.486      0.00389
  14.63511       2.106      0.00383
  14.64511       1.773      0.00379
  14.65510       1.482      0.00374
  14.66510       1.232      0.00368
  14.67509       1.016      0.00367
  14.68509       0.838      0.00364
  14.69509       0.688      0.00362
  14.70508       0.568      0.00360
  14.71508       0.467      0.00359
  14.72507       0.386      0.00359
  14.73507       0.322      0.00358
  14.74506       0.271      0.00358
  14.75506       0.231      0.00359
  14.76506       0.199      0.00358
  14.77505       0.174      0.00359
  14.78505       0.152      0.00360
  14.79504       0.132      0.00360
  14.80504       0.113      0.00361
  14.81504       0.095      0.00361
  14.82503       0.080      0.00363
  14.83503       0.069      0.00363
  14.84502       0.064      0.00365
  14.85502       0.065      0.00365
  14.86502       0.072      0.00367
  14.87501       0.084      0.00369
  14.88501       0.100      0.00371
  14.89500       0.120      0.00370
  14.90500       0.142      0.00374
  14.91500       0.167      0.00376
  14.92499       0.194      0.00377
  14.93499       0.228      0.00379
  14.94498       0.265      0.00382
  14.95498       0.313      0.00385
  14.96498       0.371      0.00386
  14.97497       0.445      0.00390
  14.98497       0.537      0.00395
  14.99496       0.651      0.00398
  15.00496       0.780      0.00402
  15.01496       0.936      0.00409
  15.02495       1.117      0.00414
  15.03495       1.318      0.00421
  15.04494       1.550      0.00428
  15.05494       1.819      0.00436
  15.06494       2.121      0.00444
  15.07493       2.450      0.00455
  15.08493       2.836      0.00464
  15.09492       3.248      0.00476
  15.10492       3.691      0.00488
  15.11492       4.156      0.00500
  15.12491       4.645      0.00512
  15.13491       5.129      0.00525
  15.14490       5.613      0.00538
  15.15490       6.109      0.00548
  15.16490       6.572      0.00562
  15.17489       7.027      0.00573
  15.18489       7.469      0.00583
  15.19488       7.857      0.00593
  15.20488       8.203      0.00604
  15.21488       8.499      0.00609
  15.22487       8.712      0.00618
  15.23487       8.853      0.00623
  15.24486       8.917      0.00625
  15.25486       8.898      0.00629
  15.26486       8.806      0.00631
  15.27485       8.643      0.00628
  15.28485       8.417      0.00627
  15.29484       8.141      0.00625
  15.30484       7.807      0.00619
  15.31484       7.443      0.00615
  15.32483       7.045      0.00610
  15.33483       6.615      0.00602
  15.34482       6.182      0.00596
  15.35482       5.738      0.00589
  15.36482       5.284      0.00580
  15.37481       4.852      0.00574
  15.38481       4.429      0.00566
  15.39480       4.016      0.00558
  15.40480       3.631      0.00551
  15.41480       3.277      0.00545
  15.42479       2.941      0.00537
  15.43479       2.637      0.00532
  15.44478       2.359      0.00528
  15.45478       2.099      0.00522
  15.46478       1.863      0.00518
  15.47477       1.645      0.00515
  15.48477       1.450      0.00511
  15.49476       1.269      0.00508
  15.50476       1.115      0.00506
  15.51476       0.973      0.00504
  15.52475       0.855      0.00504
  15.53475       0.751      0.00502
  15.54474       0.664      0.00502
  15.55474       0.592      0.00502
  15.56473       0.534      0.00503
  15.57473       0.488      0.00504
  15.58473       0.451      0.00506
  15.59472       0.423      0.00508
  15.60472       0.405      0.00510
  15.61471       0.394      0.00512
  15.62471       0.395      0.00515
  15.63471       0.409      0.00519
  15.64470       0.437      0.00522
  15.65470       0.482      0.00527
  15.66469       0.542      0.00533
  15.67469       0.624      0.00539
  15.68469       0.727      0.00545
  15.69468       0.855      0.00554
  15.70468       1.012      0.00562
  15.71467       1.204      0.00573
  15.72467       1.434      0.00584
  15.73467       1.709      0.00598
  15.74466       2.035      0.00612
  15.75466       2.418      0.00629
  15.76465       2.856      0.00648
  15.77465       3.350      0.00668
  15.78465       3.905      0.00691
  15.79464       4.509      0.00714
  15.80464       5.166      0.00740
  15.81463       5.859      0.00767
  15.82463       6.585      0.00793
  15.83463       7.316      0.00821
  15.84462       8.064      0.00847
  15.85462       8.779      0.00874
  15.86461       9.469      0.00901
  15.87461      10.095      0.00926
  15.88461      10.659      0.00947
  15.89460      11.143      0.00968
  15.90460      11.524      0.00988
  15.91459      11.790      0.01003
  15.92459      11.928      0.01014
  15.93459      11.921      0.01025
  15.94458      11.769      0.01028
  15.95458      11.480      0.01031
  15.96457      11.065      0.01026
  15.97457      10.547      0.01023
  15.98457       9.958      0.01017
  15.99456       9.295      0.01004
  16.00456       8.602      0.00994
  16.01455       7.883      0.00980
  16.02455       7.137      0.00966
  16.03455       6.403      0.00950
  16.04454       5.686      0.00934
  16.05454       4.981      0.00918
  16.06453       4.332      0.00903
  16.07453       3.722      0.00887
  16.08453       3.175      0.00875
  16.09452       2.686      0.00864
  16.10452       2.262      0.00856
  16.11451       1.908      0.00850
  16.12451       1.599      0.00846
  16.13451       1.344      0.00842
  16.14450       1.127      0.00845
  16.15450       0.948      0.00846
  16.16449       0.795      0.00850
  16.17449       0.672      0.00857
  16.18449       0.571      0.00864
  16.19448       0.492      0.00873
  16.20448       0.425      0.00885
  16.21447       0.369      0.00895
  16.22447       0.324      0.00909
  16.23447       0.288      0.00925
  16.24446       0.258      0.00937
  16.25446       0.235      0.00958
  16.26445       0.216      0.00975
  16.27445       0.197      0.00999
  16.28445       0.179      0.01016
  16.29444       0.163      0.01042
  16.30444       0.152      0.01067
  16.31443       0.147      0.01096
  16.32443       0.149      0.01127
  16.33443       0.157      0.01161
  16.34442       0.169      0.01200
  16.35442       0.185      0.01242
  16.36441       0.202      0.01290
  16.37441       0.218      0.01343
  16.38441       0.237      0.01404
  16.39440       0.256      0.01472
  16.40440       0.285      0.01543
  16.41439       0.314      0.01622
  16.42439       0.341      0.01689
  16.43438       0.359      0.01752
  16.44438       0.365      0.01821
  16.45438       0.356      0.01887
  16.46437       0.327      0.01968
  16.47437       0.285      0.02060
  16.48436       0.235      0.02150
  16.49436       0.178      0.02274
  16.50436       0.125      0.02409
  16.51435       0.076      0.02579
  16.52435       0.035      0.02801
  16.53434      -0.002      0.03102
  16.54434      -0.036      0.03519
  16.55434      -0.062      0.04204
  16.56433      -0.075      0.05322
  16.57433      -0.051      0.07821
  16.58432      -0.029      0.12133
