  1.54056
   4.00791      -0.002      0.00115
   4.01790      -0.003      0.00115
   4.02789      -0.001      0.00115
   4.03789      -0.000      0.00115
   4.04788       0.000      0.00114
   4.05787       0.002      0.00115
   4.06786       0.001      0.00114
   4.07786       0.001      0.00114
   4.08785       0.002      0.00114
   4.09784       0.000      0.00114
   4.10783      -0.000      0.00114
   4.11783       0.001      0.00114
   4.12782       0.002      0.00114
   4.13781       0.003      0.00114
   4.14780       0.004      0.00113
   4.15779       0.004      0.00113
   4.16779       0.004      0.00113
   4.17778       0.003      0.00113
   4.18777       0.003      0.00112
   4.19776       0.004      0.00113
   4.20776       0.005      0.00112
   4.21775       0.006      0.00112
   4.22774       0.007      0.00112
   4.23773       0.007      0.00112
   4.24773       0.007      0.00112
   4.25772       0.008      0.00112
   4.26771       0.009      0.00112
   4.27770       0.009      0.00112
   4.28769       0.012      0.00111
   4.29769       0.010      0.00111
   4.30768       0.010      0.00111
   4.31767       0.009      0.00111
   4.32766       0.006      0.00111
   4.33766       0.003      0.00111
   4.34765       0.001      0.00110
   4.35764      -0.001      0.00110
   4.36763      -0.003      0.00110
   4.37763      -0.003      0.00110
   4.38762      -0.003      0.00109
   4.39761      -0.001      0.00110
   4.40760       0.000      0.00109
   4.41759       0.004      0.00109
   4.42759       0.007      0.00109
   4.43758       0.009      0.00109
   4.44757       0.011      0.00109
   4.45756       0.013      0.00109
   4.46756       0.012      0.00109
   4.47755       0.011      0.00109
   4.48754       0.010      0.00109
   4.49753       0.009      0.00108
   4.50753       0.007      0.00108
   4.51752       0.006      0.00108
   4.52751       0.005      0.00108
   4.53750       0.007      0.00108
   4.54749       0.007      0.00108
   4.55749       0.007      0.00108
   4.56748       0.008      0.00108
   4.57747       0.007      0.00108
   4.58746       0.007      0.00107
   4.59746       0.008      0.00107
   4.60745       0.008      0.00107
   4.61744       0.008      0.00107
   4.62743       0.009      0.00107
   4.63742       0.009      0.00107
   4.64742       0.009      0.00107
   4.65741       0.010      0.00107
   4.66740       0.011      0.00107
   4.67739       0.011      0.00107
   4.68739       0.013      0.00107
   4.69738       0.013      0.00106
   4.70737       0.014      0.00106
   4.71736       0.013      0.00106
   4.72736       0.013      0.00106
   4.73735       0.013      0.00106
   4.74734       0.012      0.00106
   4.75733       0.011      0.00105
   4.76732       0.010      0.00106
   4.77732       0.010      0.00105
   4.78731       0.009      0.00105
   4.79730       0.008      0.00105
   4.80729       0.008      0.00105
   4.81729       0.008      0.00105
   4.82728       0.010      0.00105
   4.83727       0.009      0.00105
   4.84726       0.010      0.00105
   4.85726       0.010      0.00105
   4.86725       0.010      0.00105
   4.87724       0.010      0.00104
   4.88723       0.010      0.00104
   4.89722       0.010      0.00104
   4.90722       0.013      0.00104
   4.91721       0.014      0.00104
   4.92720       0.015      0.00104
   4.93719       0.017      0.00104
   4.94719       0.017      0.00104
   4.95718       0.018      0.00104
   4.96717       0.017      0.00104
   4.97716       0.015      0.00103
   4.98716       0.013      0.00103
   4.99715       0.012      0.00103
   5.00714       0.009      0.00103
   5.01713       0.009      0.00103
   5.02712       0.010      0.00103
   5.03712       0.010      0.00103
   5.04711       0.012      0.00103
   5.05710       0.013      0.00103
   5.06709       0.013      0.00103
   5.07709       0.013      0.00102
   5.08708       0.012      0.00102
   5.09707       0.010      0.00102
   5.10706       0.009      0.00102
   5.11706       0.007      0.00102
   5.12705       0.005      0.00102
   5.13704       0.006      0.00102
   5.14703       0.005      0.00101
   5.15702       0.004      0.00101
   5.16702       0.005      0.00101
   5.17701       0.005      0.00101
   5.18700       0.005      0.00101
   5.19699       0.005      0.00101
   5.20699       0.006      0.00101
   5.21698       0.008      0.00101
   5.22697       0.009      0.00101
   5.23696       0.010      0.00101
   5.24695       0.011      0.00101
   5.25695       0.012      0.00101
   5.26694       0.012      0.00101
   5.27693       0.013      0.00101
   5.28692       0.013      0.00100
   5.29692       0.012      0.00100
   5.30691       0.012      0.00100
   5.31690       0.011      0.00100
   5.32689       0.009      0.00100
   5.33689       0.008      0.00100
   5.34688       0.007      0.00100
   5.35687       0.005      0.00099
   5.36686       0.003      0.00099
   5.37685       0.002      0.00099
   5.38685       0.002      0.00099
   5.39684       0.003      0.00099
   5.40683       0.005      0.00099
   5.41682       0.008      0.00099
   5.42682       0.009      0.00099
   5.43681       0.010      0.00099
   5.44680       0.011      0.00099
   5.45679       0.010      0.00099
   5.46679       0.011      0.00099
   5.47678       0.012      0.00099
   5.48677       0.013      0.00099
   5.49676       0.014      0.00098
   5.50675       0.015      0.00099
   5.51675       0.014      0.00098
   5.52674       0.013      0.00098
   5.53673       0.012      0.00098
   5.54672       0.009      0.00098
   5.55672       0.008      0.00098
   5.56671       0.006      0.00098
   5.57670       0.004      0.00098
   5.58669       0.004      0.00097
   5.59669       0.003      0.00097
   5.60668       0.002      0.00097
   5.61667       0.002      0.00097
   5.62666       0.002      0.00097
   5.63665       0.002      0.00097
   5.64665       0.003      0.00097
   5.65664       0.003      0.00097
   5.66663       0.003      0.00097
   5.67662       0.004      0.00097
   5.68662       0.005      0.00097
   5.69661       0.006      0.00096
   5.70660       0.007      0.00097
   5.71659       0.009      0.00096
   5.72659       0.010      0.00096
   5.73658       0.010      0.00096
   5.74657       0.009      0.00096
   5.75656       0.007      0.00096
   5.76655       0.006      0.00096
   5.77655       0.005      0.00096
   5.78654       0.005      0.00096
   5.79653       0.005      0.00096
   5.80652       0.005      0.00096
   5.81652       0.006      0.00096
   5.82651       0.007      0.00096
   5.83650       0.009      0.00095
   5.84649       0.010      0.00096
   5.85648       0.011      0.00095
   5.86648       0.012      0.00095
   5.87647       0.010      0.00095
   5.88646       0.009      0.00095
   5.89645       0.007      0.00095
   5.90645       0.006      0.00095
   5.91644       0.005      0.00095
   5.92643       0.005      0.00095
   5.93642       0.006      0.00095
   5.94642       0.007      0.00094
   5.95641       0.008      0.00095
   5.96640       0.010      0.00095
   5.97639       0.013      0.00095
   5.98638       0.014      0.00094
   5.99638       0.015      0.00095
   6.00637       0.016      0.00094
   6.01636       0.018      0.00094
   6.02635       0.017      0.00094
   6.03635       0.019      0.00094
   6.04634       0.020      0.00094
   6.05633       0.021      0.00094
   6.06632       0.021      0.00094
   6.07632       0.021      0.00094
   6.08631       0.021      0.00094
   6.09630       0.023      0.00094
   6.10629       0.023      0.00094
   6.11628       0.025      0.00094
   6.12628       0.028      0.00094
   6.13627       0.030      0.00094
   6.14626       0.032      0.00094
   6.15625       0.035      0.00094
   6.16625       0.039      0.00094
   6.17624       0.043      0.00094
   6.18623       0.049      0.00094
   6.19622       0.054      0.00094
   6.20622       0.061      0.00094
   6.21621       0.069      0.00094
   6.22620       0.077      0.00095
   6.23619       0.086      0.00095
   6.24618       0.098      0.00095
   6.25618       0.111      0.00095
   6.26617       0.127      0.00096
   6.27616       0.148      0.00096
   6.28615       0.174      0.00097
   6.29615       0.210      0.00098
   6.30614       0.260      0.00099
   6.31613       0.327      0.00101
   6.32612       0.419      0.00103
   6.33612       0.547      0.00107
   6.34611       0.720      0.00111
   6.35610       0.950      0.00116
   6.36609       1.254      0.00123
   6.37608       1.645      0.00131
   6.38608       2.129      0.00141
   6.39607       2.716      0.00152
   6.40606       3.403      0.00163
   6.41605       4.172      0.00176
   6.42605       4.999      0.00188
   6.43604       5.842      0.00199
   6.44603       6.655      0.00210
   6.45602       7.377      0.00219
   6.46601       7.957      0.00226
   6.47601       8.335      0.00230
   6.48600       8.482      0.00231
   6.49599       8.384      0.00230
   6.50598       8.057      0.00226
   6.51598       7.503      0.00219
   6.52597       6.796      0.00211
   6.53596       5.978      0.00199
   6.54595       5.112      0.00187
   6.55595       4.250      0.00175
   6.56594       3.442      0.00162
   6.57593       2.721      0.00149
   6.58592       2.098      0.00138
   6.59591       1.590      0.00128
   6.60591       1.185      0.00119
   6.61590       0.871      0.00112
   6.62589       0.639      0.00106
   6.63588       0.471      0.00102
   6.64588       0.348      0.00099
   6.65587       0.263      0.00096
   6.66586       0.204      0.00095
   6.67585       0.160      0.00094
   6.68585       0.130      0.00092
   6.69584       0.108      0.00092
   6.70583       0.091      0.00091
   6.71582       0.077      0.00091
   6.72581       0.067      0.00091
   6.73581       0.058      0.00090
   6.74580       0.050      0.00090
   6.75579       0.044      0.00090
   6.76578       0.039      0.00089
   6.77578       0.036      0.00089
   6.78577       0.033      0.00089
   6.79576       0.031      0.00089
   6.80575       0.030      0.00089
   6.81575       0.028      0.00089
   6.82574       0.028      0.00089
   6.83573       0.027      0.00089
   6.84572       0.027      0.00089
   6.85571       0.027      0.00088
   6.86571       0.026      0.00088
   6.87570       0.024      0.00088
   6.88569       0.022      0.00088
   6.89568       0.020      0.00088
   6.90568       0.019      0.00088
   6.91567       0.018      0.00088
   6.92566       0.017      0.00088
   6.93565       0.016      0.00088
   6.94565       0.016      0.00087
   6.95564       0.014      0.00087
   6.96563       0.012      0.00087
   6.97562       0.011      0.00087
   6.98561       0.010      0.00087
   6.99561       0.010      0.00087
   7.00560       0.009      0.00087
   7.01559       0.009      0.00087
   7.02558       0.010      0.00087
   7.03558       0.009      0.00087
   7.04557       0.009      0.00087
   7.05556       0.009      0.00087
   7.06555       0.009      0.00087
   7.07555       0.008      0.00086
   7.08554       0.008      0.00086
   7.09553       0.008      0.00086
   7.10552       0.008      0.00086
   7.11551       0.009      0.00086
   7.12551       0.009      0.00086
   7.13550       0.010      0.00086
   7.14549       0.010      0.00086
   7.15548       0.010      0.00086
   7.16548       0.011      0.00086
   7.17547       0.011      0.00086
   7.18546       0.011      0.00086
   7.19545       0.011      0.00086
   7.20544       0.010      0.00086
   7.21544       0.010      0.00086
   7.22543       0.009      0.00086
   7.23542       0.009      0.00086
   7.24541       0.010      0.00086
   7.25541       0.010      0.00085
   7.26540       0.011      0.00086
   7.27539       0.011      0.00085
   7.28538       0.011      0.00085
   7.29538       0.010      0.00085
   7.30537       0.010      0.00085
   7.31536       0.008      0.00085
   7.32535       0.006      0.00085
   7.33534       0.003      0.00085
   7.34534       0.001      0.00085
   7.35533      -0.001      0.00084
   7.36532      -0.002      0.00084
   7.37531      -0.003      0.00084
   7.38531      -0.002      0.00084
   7.39530      -0.002      0.00084
   7.40529      -0.000      0.00084
   7.41528       0.001      0.00084
   7.42528       0.002      0.00084
   7.43527       0.004      0.00084
   7.44526       0.006      0.00084
   7.45525       0.006      0.00084
   7.46524       0.007      0.00084
   7.47524       0.007      0.00084
   7.48523       0.007      0.00084
   7.49522       0.007      0.00084
   7.50521       0.007      0.00084
   7.51521       0.007      0.00084
   7.52520       0.008      0.00084
   7.53519       0.008      0.00084
   7.54518       0.008      0.00084
   7.55518       0.009      0.00084
   7.56517       0.008      0.00083
   7.57516       0.008      0.00083
   7.58515       0.008      0.00083
   7.59514       0.008      0.00083
   7.60514       0.007      0.00083
   7.61513       0.007      0.00083
   7.62512       0.006      0.00083
   7.63511       0.005      0.00083
   7.64511       0.006      0.00083
   7.65510       0.005      0.00083
   7.66509       0.006      0.00083
   7.67508       0.005      0.00083
   7.68508       0.005      0.00083
   7.69507       0.004      0.00083
   7.70506       0.002      0.00083
   7.71505       0.001      0.00082
   7.72504       0.001      0.00082
   7.73504      -0.001      0.00082
   7.74503      -0.002      0.00082
   7.75502      -0.000      0.00082
   7.76501      -0.000      0.00082
   7.77501       0.000      0.00082
   7.78500       0.000      0.00082
   7.79499      -0.000      0.00082
   7.80498      -0.000      0.00082
   7.81497      -0.000      0.00082
   7.82497       0.000      0.00082
   7.83496       0.001      0.00082
   7.84495       0.003      0.00082
   7.85494       0.004      0.00082
   7.86494       0.006      0.00082
   7.87493       0.008      0.00082
   7.88492       0.009      0.00082
   7.89491       0.011      0.00082
   7.90491       0.010      0.00082
   7.91490       0.010      0.00082
   7.92489       0.009      0.00081
   7.93488       0.009      0.00082
   7.94487       0.009      0.00082
   7.95487       0.010      0.00081
   7.96486       0.010      0.00081
   7.97485       0.011      0.00081
   7.98484       0.011      0.00081
   7.99484       0.012      0.00081
   8.00483       0.012      0.00081
   8.01482       0.013      0.00081
   8.02481       0.013      0.00081
   8.03481       0.014      0.00081
   8.04480       0.014      0.00081
   8.05479       0.013      0.00081
   8.06478       0.013      0.00081
   8.07477       0.012      0.00081
   8.08477       0.010      0.00081
   8.09476       0.008      0.00081
   8.10475       0.005      0.00081
   8.11474       0.004      0.00080
   8.12474       0.003      0.00080
   8.13473       0.002      0.00080
   8.14472       0.002      0.00080
   8.15471       0.002      0.00080
   8.16471       0.001      0.00080
   8.17470       0.000      0.00080
   8.18469      -0.000      0.00080
   8.19468      -0.001      0.00080
   8.20467      -0.002      0.00080
   8.21467      -0.002      0.00080
   8.22466      -0.002      0.00080
   8.23465      -0.002      0.00080
   8.24464      -0.002      0.00080
   8.25464       0.000      0.00080
   8.26463       0.001      0.00080
   8.27462       0.002      0.00080
   8.28461       0.002      0.00080
   8.29461       0.002      0.00080
   8.30460       0.002      0.00080
   8.31459       0.001      0.00079
   8.32458       0.001      0.00079
   8.33457       0.001      0.00079
   8.34457       0.000      0.00079
   8.35456      -0.000      0.00079
   8.36455       0.000      0.00079
   8.37454       0.001      0.00079
   8.38454       0.003      0.00079
   8.39453       0.004      0.00079
   8.40452       0.005      0.00079
   8.41451       0.007      0.00079
   8.42450       0.007      0.00079
   8.43450       0.007      0.00079
   8.44449       0.007      0.00079
   8.45448       0.006      0.00079
   8.46447       0.003      0.00079
   8.47447       0.002      0.00079
   8.48446       0.001      0.00079
   8.49445       0.000      0.00079
   8.50444       0.001      0.00079
   8.51444       0.003      0.00079
   8.52443       0.004      0.00079
   8.53442       0.004      0.00079
   8.54441       0.004      0.00079
   8.55440       0.005      0.00079
   8.56440       0.004      0.00079
   8.57439       0.005      0.00078
   8.58438       0.005      0.00079
   8.59437       0.005      0.00078
   8.60437       0.006      0.00078
   8.61436       0.007      0.00079
   8.62435       0.007      0.00078
   8.63434       0.006      0.00078
   8.64434       0.007      0.00078
   8.65433       0.004      0.00078
   8.66432       0.003      0.00078
   8.67431       0.002      0.00078
   8.68430       0.001      0.00078
   8.69430       0.001      0.00078
   8.70429       0.001      0.00078
   8.71428       0.001      0.00078
   8.72427       0.001      0.00078
   8.73427       0.001      0.00078
   8.74426      -0.000      0.00078
   8.75425      -0.000      0.00078
   8.76424       0.001      0.00077
   8.77424       0.001      0.00078
   8.78423       0.003      0.00078
   8.79422       0.004      0.00077
   8.80421       0.005      0.00078
   8.81420       0.005      0.00078
   8.82420       0.005      0.00077
   8.83419       0.005      0.00078
   8.84418       0.004      0.00077
   8.85417       0.004      0.00077
   8.86417       0.002      0.00077
   8.87416       0.002      0.00077
   8.88415       0.001      0.00077
   8.89414       0.002      0.00077
   8.90414       0.004      0.00077
   8.91413       0.005      0.00077
   8.92412       0.007      0.00077
   8.93411       0.008      0.00077
   8.94410       0.008      0.00077
   8.95410       0.009      0.00077
   8.96409       0.008      0.00077
   8.97408       0.006      0.00077
   8.98407       0.005      0.00077
   8.99407       0.003      0.00077
   9.00406       0.001      0.00077
   9.01405       0.001      0.00077
   9.02404       0.000      0.00077
   9.03403       0.001      0.00077
   9.04403       0.001      0.00077
   9.05402       0.001      0.00076
   9.06401       0.001      0.00076
   9.07400       0.000      0.00076
   9.08400       0.001      0.00076
   9.09399       0.001      0.00076
   9.10398       0.000      0.00076
   9.11397       0.001      0.00076
   9.12397       0.002      0.00076
   9.13396       0.002      0.00076
   9.14395       0.003      0.00076
   9.15394       0.004      0.00076
   9.16393       0.003      0.00076
   9.17393       0.003      0.00076
   9.18392       0.004      0.00076
   9.19391       0.004      0.00076
   9.20390       0.004      0.00076
   9.21390       0.005      0.00076
   9.22389       0.006      0.00076
   9.23388       0.007      0.00076
   9.24387       0.006      0.00076
   9.25387       0.007      0.00076
   9.26386       0.007      0.00076
   9.27385       0.006      0.00076
   9.28384       0.006      0.00076
   9.29383       0.006      0.00076
   9.30383       0.005      0.00076
   9.31382       0.004      0.00076
   9.32381       0.005      0.00076
   9.33380       0.005      0.00076
   9.34380       0.005      0.00076
   9.35379       0.005      0.00076
   9.36378       0.004      0.00075
   9.37377       0.004      0.00075
   9.38377       0.003      0.00075
   9.39376       0.002      0.00075
   9.40375       0.001      0.00075
   9.41374       0.000      0.00075
   9.42373       0.000      0.00075
   9.43373      -0.000      0.00075
   9.44372      -0.001      0.00075
   9.45371      -0.002      0.00075
   9.46370      -0.003      0.00075
   9.47370      -0.004      0.00075
   9.48369      -0.004      0.00075
   9.49368      -0.005      0.00075
   9.50367      -0.004      0.00075
   9.51367      -0.002      0.00075
   9.52366      -0.001      0.00075
   9.53365       0.000      0.00075
   9.54364       0.002      0.00075
   9.55363       0.003      0.00075
   9.56363       0.004      0.00075
   9.57362       0.005      0.00075
   9.58361       0.004      0.00075
   9.59360       0.004      0.00075
   9.60360       0.004      0.00075
   9.61359       0.003      0.00075
   9.62358       0.004      0.00075
   9.63357       0.004      0.00075
   9.64356       0.004      0.00075
   9.65356       0.005      0.00075
   9.66355       0.005      0.00075
   9.67354       0.004      0.00074
   9.68353       0.005      0.00074
   9.69353       0.005      0.00075
   9.70352       0.004      0.00074
   9.71351       0.004      0.00074
   9.72350       0.004      0.00074
   9.73350       0.003      0.00074
   9.74349       0.002      0.00074
   9.75348       0.001      0.00074
   9.76347       0.001      0.00074
   9.77346      -0.002      0.00074
   9.78346      -0.001      0.00074
   9.79345      -0.000      0.00074
   9.80344      -0.001      0.00074
   9.81343      -0.001      0.00074
   9.82343       0.001      0.00074
   9.83342       0.000      0.00074
   9.84341       0.001      0.00074
   9.85340       0.001      0.00074
   9.86340       0.001      0.00074
   9.87339       0.001      0.00074
   9.88338       0.002      0.00074
   9.89337       0.002      0.00074
   9.90336       0.002      0.00074
   9.91336       0.002      0.00074
   9.92335       0.001      0.00074
   9.93334       0.002      0.00074
   9.94333       0.001      0.00074
   9.95333       0.001      0.00075
   9.96332       0.001      0.00075
   9.97331       0.000      0.00075
   9.98330       0.000      0.00075
   9.99330      -0.000      0.00075
  10.00329       0.000      0.00075
  10.01328       0.002      0.00075
  10.02327       0.003      0.00075
  10.03326       0.004      0.00075
  10.04326       0.005      0.00076
  10.05325       0.004      0.00076
  10.06324       0.003      0.00076
  10.07323       0.003      0.00076
  10.08323       0.001      0.00076
  10.09322       0.002      0.00076
  10.10321       0.002      0.00076
  10.11320       0.003      0.00076
  10.12320       0.004      0.00076
  10.13319       0.005      0.00076
  10.14318       0.004      0.00076
  10.15317       0.004      0.00076
  10.16316       0.003      0.00076
  10.17316       0.003      0.00076
  10.18315       0.004      0.00076
  10.19314       0.004      0.00076
  10.20313       0.005      0.00076
  10.21313       0.006      0.00076
  10.22312       0.005      0.00077
  10.23311       0.005      0.00076
  10.24310       0.006      0.00077
  10.25309       0.006      0.00077
  10.26309       0.005      0.00077
  10.27308       0.003      0.00077
  10.28307       0.002      0.00076
  10.29306       0.002      0.00077
  10.30306      -0.000      0.00077
  10.31305       0.000      0.00076
  10.32304       0.001      0.00077
  10.33303       0.000      0.00077
  10.34303      -0.000      0.00077
  10.35302      -0.001      0.00077
  10.36301      -0.002      0.00077
  10.37300      -0.002      0.00077
  10.38299      -0.001      0.00077
  10.39299      -0.002      0.00077
  10.40298      -0.001      0.00077
  10.41297       0.000      0.00077
  10.42296       0.001      0.00077
  10.43296       0.002      0.00077
  10.44295       0.002      0.00077
  10.45294       0.003      0.00077
  10.46293       0.003      0.00077
  10.47293       0.002      0.00077
  10.48292       0.003      0.00077
  10.49291       0.002      0.00077
  10.50290       0.002      0.00077
  10.51289       0.003      0.00077
  10.52289       0.003      0.00077
  10.53288       0.004      0.00077
  10.54287       0.006      0.00077
  10.55286       0.006      0.00077
  10.56286       0.006      0.00077
  10.57285       0.007      0.00077
  10.58284       0.006      0.00077
  10.59283       0.007      0.00077
  10.60283       0.007      0.00077
  10.61282       0.006      0.00077
  10.62281       0.007      0.00077
  10.63280       0.005      0.00077
  10.64279       0.005      0.00077
  10.65279       0.005      0.00077
  10.66278       0.002      0.00077
  10.67277       0.002      0.00077
  10.68276       0.001      0.00077
  10.69276      -0.001      0.00077
  10.70275      -0.001      0.00077
  10.71274      -0.002      0.00077
  10.72273      -0.003      0.00077
  10.73273      -0.003      0.00077
  10.74272      -0.002      0.00077
  10.75271      -0.001      0.00077
  10.76270      -0.000      0.00078
  10.77269      -0.001      0.00078
  10.78269      -0.001      0.00078
  10.79268       0.001      0.00078
  10.80267      -0.000      0.00079
  10.81266       0.001      0.00079
  10.82266       0.003      0.00079
  10.83265       0.002      0.00079
  10.84264       0.002      0.00079
  10.85263       0.001      0.00079
  10.86262      -0.000      0.00079
  10.87262      -0.000      0.00079
  10.88261      -0.001      0.00079
  10.89260      -0.001      0.00079
  10.90259      -0.000      0.00080
  10.91259      -0.001      0.00080
  10.92258       0.001      0.00080
  10.93257       0.002      0.00080
  10.94256       0.000      0.00080
  10.95256       0.001      0.00080
  10.96255       0.001      0.00080
  10.97254       0.000      0.00080
  10.98253       0.002      0.00080
  10.99252       0.002      0.00080
  11.00252       0.002      0.00080
  11.01251       0.004      0.00081
  11.02250       0.004      0.00081
  11.03249       0.004      0.00081
  11.04249       0.005      0.00082
  11.05248       0.004      0.00082
  11.06247       0.005      0.00082
  11.07246       0.005      0.00083
  11.08246       0.004      0.00083
  11.09245       0.006      0.00083
  11.10244       0.005      0.00083
  11.11243       0.005      0.00083
  11.12242       0.006      0.00084
  11.13242       0.005      0.00084
  11.14241       0.005      0.00084
  11.15240       0.006      0.00084
  11.16239       0.004      0.00084
  11.17239       0.004      0.00084
  11.18238       0.003      0.00084
  11.19237       0.002      0.00084
  11.20236       0.004      0.00085
  11.21236       0.003      0.00085
  11.22235       0.003      0.00085
  11.23234       0.004      0.00085
  11.24233       0.003      0.00085
  11.25232       0.002      0.00086
  11.26232       0.003      0.00086
  11.27231       0.001      0.00086
  11.28230       0.003      0.00086
  11.29229       0.004      0.00086
  11.30229       0.003      0.00086
  11.31228       0.005      0.00087
  11.32227       0.005      0.00087
  11.33226       0.005      0.00087
  11.34226       0.006      0.00087
  11.35225       0.004      0.00087
  11.36224       0.005      0.00087
  11.37223       0.005      0.00088
  11.38222       0.003      0.00088
  11.39222       0.004      0.00088
  11.40221       0.004      0.00088
  11.41220       0.002      0.00088
  11.42219       0.003      0.00088
  11.43219       0.003      0.00088
  11.44218       0.002      0.00089
  11.45217       0.003      0.00089
  11.46216       0.002      0.00089
  11.47215       0.001      0.00089
  11.48215       0.001      0.00089
  11.49214      -0.000      0.00089
  11.50213      -0.000      0.00089
  11.51212      -0.000      0.00090
  11.52212      -0.002      0.00090
  11.53211      -0.001      0.00090
  11.54210      -0.003      0.00090
  11.55209      -0.003      0.00090
  11.56209      -0.003      0.00090
  11.57208      -0.002      0.00090
  11.58207      -0.001      0.00091
  11.59206       0.001      0.00091
  11.60205       0.002      0.00091
  11.61205       0.005      0.00091
  11.62204       0.006      0.00091
  11.63203       0.006      0.00092
  11.64202       0.009      0.00092
  11.65202       0.009      0.00092
  11.66201       0.009      0.00092
  11.67200       0.012      0.00092
  11.68199       0.012      0.00092
  11.69199       0.013      0.00093
  11.70198       0.014      0.00093
  11.71197       0.012      0.00093
  11.72196       0.011      0.00093
  11.73195       0.010      0.00093
  11.74195       0.008      0.00093
  11.75194       0.010      0.00093
  11.76193       0.008      0.00093
  11.77192       0.004      0.00093
  11.78192       0.003      0.00094
  11.79191      -0.000      0.00094
  11.80190      -0.002      0.00094
  11.81189      -0.001      0.00094
  11.82189      -0.003      0.00094
  11.83188      -0.003      0.00094
  11.84187      -0.003      0.00094
  11.85186      -0.004      0.00094
  11.86185      -0.002      0.00095
  11.87185      -0.000      0.00095
  11.88184       0.001      0.00095
  11.89183       0.004      0.00095
  11.90182       0.003      0.00095
  11.91182       0.005      0.00096
  11.92181       0.007      0.00096
  11.93180       0.007      0.00096
  11.94179       0.009      0.00096
  11.95179       0.009      0.00096
  11.96178       0.005      0.00096
  11.97177       0.004      0.00097
  11.98176       0.001      0.00096
  11.99175      -0.002      0.00097
  12.00175      -0.001      0.00097
  12.01174      -0.002      0.00097
  12.02173      -0.002      0.00097
  12.03172       0.001      0.00097
  12.04172       0.001      0.00097
  12.05171       0.002      0.00098
  12.06170       0.002      0.00098
  12.07169       0.002      0.00098
  12.08168       0.005      0.00098
  12.09168       0.005      0.00098
  12.10167       0.006      0.00098
  12.11166       0.010      0.00099
  12.12165       0.008      0.00099
  12.13165       0.008      0.00099
  12.14164       0.010      0.00099
  12.15163       0.007      0.00099
  12.16162       0.007      0.00099
  12.17162       0.008      0.00100
  12.18161       0.006      0.00100
  12.19160       0.005      0.00100
  12.20159       0.004      0.00100
  12.21158       0.004      0.00100
  12.22158       0.006      0.00100
  12.23157       0.004      0.00100
  12.24156       0.006      0.00100
  12.25155       0.007      0.00101
  12.26155       0.005      0.00101
  12.27154       0.005      0.00101
  12.28153       0.005      0.00101
  12.29152       0.004      0.00101
  12.30152       0.006      0.00101
  12.31151       0.006      0.00102
  12.32150       0.005      0.00102
  12.33149       0.007      0.00102
  12.34148       0.006      0.00102
  12.35148       0.006      0.00102
  12.36147       0.007      0.00102
  12.37146       0.007      0.00102
  12.38145       0.009      0.00103
  12.39145       0.008      0.00103
  12.40144       0.009      0.00103
  12.41143       0.012      0.00103
  12.42142       0.011      0.00103
  12.43142       0.011      0.00103
  12.44141       0.014      0.00104
  12.45140       0.011      0.00104
  12.46139       0.010      0.00104
  12.47138       0.010      0.00104
  12.48138       0.006      0.00104
  12.49137       0.006      0.00104
  12.50136       0.005      0.00104
  12.51135       0.003      0.00104
  12.52135       0.004      0.00105
  12.53134       0.002      0.00105
  12.54133      -0.001      0.00105
  12.55132      -0.001      0.00105
  12.56132      -0.004      0.00105
  12.57131      -0.005      0.00105
  12.58130      -0.005      0.00105
  12.59129      -0.004      0.00105
  12.60128      -0.002      0.00106
  12.61128      -0.003      0.00106
  12.62127      -0.002      0.00106
  12.63126       0.000      0.00106
  12.64125      -0.002      0.00106
  12.65125      -0.001      0.00106
  12.66124       0.005      0.00107
  12.67123       0.007      0.00107
  12.68122       0.009      0.00108
  12.69121       0.016      0.00109
  12.70121       0.017      0.00109
  12.71120       0.018      0.00110
  12.72119       0.021      0.00110
  12.73118       0.023      0.00110
  12.74118       0.029      0.00111
  12.75117       0.034      0.00112
  12.76116       0.038      0.00112
  12.77115       0.042      0.00113
  12.78115       0.046      0.00114
  12.79114       0.049      0.00114
  12.80113       0.052      0.00115
  12.81112       0.054      0.00115
  12.82111       0.055      0.00116
  12.83111       0.057      0.00116
  12.84110       0.059      0.00116
  12.85109       0.061      0.00117
  12.86108       0.063      0.00117
  12.87108       0.065      0.00118
  12.88107       0.067      0.00118
  12.89106       0.069      0.00119
  12.90105       0.071      0.00119
  12.91105       0.074      0.00120
  12.92104       0.077      0.00120
  12.93103       0.080      0.00121
  12.94102       0.083      0.00121
  12.95101       0.086      0.00122
  12.96101       0.089      0.00122
  12.97100       0.092      0.00123
  12.98099       0.094      0.00123
  12.99098       0.095      0.00124
  13.00098       0.095      0.00124
  13.01097       0.094      0.00125
  13.02096       0.093      0.00125
  13.03095       0.090      0.00125
  13.04095       0.087      0.00126
  13.05094       0.083      0.00126
  13.06093       0.078      0.00126
  13.07092       0.072      0.00126
  13.08091       0.067      0.00127
  13.09091       0.062      0.00127
  13.10090       0.059      0.00127
  13.11089       0.055      0.00127
  13.12088       0.052      0.00128
  13.13088       0.050      0.00128
  13.14087       0.047      0.00128
  13.15086       0.043      0.00129
  13.16085       0.039      0.00129
  13.17085       0.036      0.00129
  13.18084       0.034      0.00130
  13.19083       0.032      0.00130
  13.20082       0.031      0.00130
  13.21081       0.031      0.00131
  13.22081       0.032      0.00131
  13.23080       0.033      0.00132
  13.24079       0.034      0.00132
  13.25078       0.035      0.00133
  13.26078       0.036      0.00133
  13.27077       0.036      0.00134
  13.28076       0.037      0.00134
  13.29075       0.037      0.00134
  13.30074       0.038      0.00135
  13.31074       0.040      0.00135
  13.32073       0.041      0.00136
  13.33072       0.044      0.00136
  13.34071       0.046      0.00137
  13.35071       0.049      0.00137
  13.36070       0.051      0.00138
  13.37069       0.052      0.00138
  13.38068       0.053      0.00139
  13.39068       0.054      0.00139
  13.40067       0.054      0.00140
  13.41066       0.054      0.00140
  13.42065       0.055      0.00141
  13.43064       0.055      0.00141
  13.44064       0.056      0.00142
  13.45063       0.056      0.00142
  13.46062       0.056      0.00143
  13.47061       0.056      0.00143
  13.48061       0.056      0.00143
  13.49060       0.056      0.00144
  13.50059       0.056      0.00144
  13.51058       0.057      0.00145
  13.52058       0.057      0.00145
  13.53057       0.058      0.00146
  13.54056       0.058      0.00146
  13.55055       0.057      0.00147
  13.56054       0.057      0.00147
  13.57054       0.057      0.00148
  13.58053       0.058      0.00148
  13.59052       0.060      0.00149
  13.60051       0.062      0.00149
  13.61051       0.064      0.00150
  13.62050       0.064      0.00151
  13.63049       0.065      0.00151
  13.64048       0.064      0.00152
  13.65048       0.065      0.00152
  13.66047       0.065      0.00153
  13.67046       0.068      0.00153
  13.68045       0.072      0.00154
  13.69044       0.076      0.00154
  13.70044       0.082      0.00155
  13.71043       0.090      0.00156
  13.72042       0.098      0.00157
  13.73041       0.109      0.00158
  13.74041       0.121      0.00158
  13.75040       0.135      0.00160
  13.76039       0.152      0.00161
  13.77038       0.173      0.00162
  13.78038       0.198      0.00163
  13.79037       0.229      0.00165
  13.80036       0.266      0.00167
  13.81035       0.312      0.00169
  13.82034       0.367      0.00171
  13.83034       0.433      0.00174
  13.84033       0.512      0.00177
  13.85032       0.604      0.00181
  13.86031       0.713      0.00185
  13.87031       0.837      0.00190
  13.88030       0.974      0.00194
  13.89029       1.126      0.00200
  13.90028       1.287      0.00205
  13.91027       1.453      0.00211
  13.92027       1.622      0.00216
  13.93026       1.788      0.00221
  13.94025       1.947      0.00227
  13.95024       2.092      0.00231
  13.96024       2.222      0.00236
  13.97023       2.331      0.00239
  13.98022       2.415      0.00242
  13.99021       2.473      0.00245
  14.00021       2.504      0.00247
  14.01020       2.506      0.00247
  14.02019       2.480      0.00248
  14.03018       2.427      0.00247
  14.04017       2.350      0.00246
  14.05017       2.255      0.00244
  14.06016       2.143      0.00242
  14.07015       2.019      0.00239
  14.08014       1.888      0.00237
  14.09014       1.754      0.00234
  14.10013       1.619      0.00231
  14.11012       1.487      0.00227
  14.12011       1.356      0.00224
  14.13011       1.234      0.00221
  14.14010       1.117      0.00218
  14.15009       1.008      0.00216
  14.16008       0.906      0.00213
  14.17007       0.813      0.00211
  14.18007       0.728      0.00209
  14.19006       0.651      0.00206
  14.20005       0.581      0.00205
  14.21004       0.521      0.00204
  14.22004       0.469      0.00203
  14.23003       0.428      0.00202
  14.24002       0.395      0.00201
  14.25001       0.372      0.00201
  14.26001       0.357      0.00202
  14.27000       0.351      0.00202
  14.27999       0.354      0.00203
  14.28998       0.368      0.00205
  14.29997       0.394      0.00207
  14.30997       0.435      0.00209
  14.31996       0.493      0.00212
  14.32995       0.571      0.00216
  14.33994       0.672      0.00221
  14.34994       0.796      0.00227
  14.35993       0.946      0.00233
  14.36992       1.125      0.00241
  14.37991       1.333      0.00249
  14.38991       1.567      0.00258
  14.39990       1.823      0.00268
  14.40989       2.097      0.00277
  14.41988       2.376      0.00287
  14.42987       2.649      0.00298
  14.43987       2.902      0.00306
  14.44986       3.126      0.00314
  14.45985       3.302      0.00321
  14.46984       3.423      0.00326
  14.47984       3.480      0.00329
  14.48983       3.469      0.00330
  14.49982       3.392      0.00330
  14.50981       3.253      0.00328
  14.51980       3.060      0.00322
  14.52980       2.828      0.00317
  14.53979       2.564      0.00310
  14.54978       2.285      0.00302
  14.55977       1.999      0.00293
  14.56977       1.723      0.00285
  14.57976       1.461      0.00277
  14.58975       1.220      0.00269
  14.59974       1.010      0.00261
  14.60974       0.827      0.00255
  14.61973       0.671      0.00250
  14.62972       0.541      0.00245
  14.63971       0.436      0.00241
  14.64970       0.349      0.00239
  14.65970       0.280      0.00236
  14.66969       0.226      0.00235
  14.67968       0.184      0.00233
  14.68967       0.152      0.00233
  14.69967       0.130      0.00232
  14.70966       0.115      0.00233
  14.71965       0.104      0.00233
  14.72964       0.096      0.00233
  14.73964       0.088      0.00233
  14.74963       0.079      0.00234
  14.75962       0.070      0.00233
  14.76961       0.059      0.00234
  14.77960       0.049      0.00235
  14.78960       0.042      0.00235
  14.79959       0.036      0.00235
  14.80958       0.033      0.00236
  14.81957       0.032      0.00237
  14.82957       0.031      0.00237
  14.83956       0.031      0.00237
  14.84955       0.030      0.00239
  14.85954       0.028      0.00239
  14.86954       0.025      0.00240
  14.87953       0.024      0.00241
  14.88952       0.022      0.00241
  14.89951       0.022      0.00242
  14.90950       0.025      0.00243
  14.91950       0.031      0.00244
  14.92949       0.041      0.00245
  14.93948       0.054      0.00248
  14.94947       0.070      0.00248
  14.95947       0.088      0.00250
  14.96946       0.107      0.00253
  14.97945       0.126      0.00255
  14.98944       0.147      0.00256
  14.99944       0.170      0.00258
  15.00943       0.197      0.00261
  15.01942       0.228      0.00263
  15.02941       0.268      0.00266
  15.03940       0.319      0.00270
  15.04940       0.380      0.00275
  15.05939       0.456      0.00278
  15.06938       0.546      0.00285
  15.07937       0.653      0.00292
  15.08937       0.777      0.00298
  15.09936       0.918      0.00306
  15.10935       1.077      0.00316
  15.11934       1.255      0.00324
  15.12933       1.447      0.00335
  15.13933       1.653      0.00345
  15.14932       1.874      0.00355
  15.15931       2.101      0.00367
  15.16930       2.329      0.00379
  15.17930       2.557      0.00388
  15.18929       2.773      0.00399
  15.19928       2.969      0.00409
  15.20927       3.140      0.00417
  15.21927       3.281      0.00423
  15.22926       3.384      0.00430
  15.23925       3.449      0.00434
  15.24924       3.472      0.00436
  15.25923       3.453      0.00438
  15.26923       3.394      0.00437
  15.27922       3.299      0.00434
  15.28921       3.175      0.00433
  15.29920       3.027      0.00429
  15.30920       2.862      0.00422
  15.31919       2.686      0.00418
  15.32918       2.503      0.00412
  15.33917       2.317      0.00404
  15.34917       2.134      0.00399
  15.35916       1.953      0.00392
  15.36915       1.777      0.00385
  15.37914       1.609      0.00379
  15.38913       1.450      0.00373
  15.39913       1.300      0.00367
  15.40912       1.157      0.00361
  15.41911       1.025      0.00356
  15.42910       0.901      0.00350
  15.43910       0.787      0.00345
  15.44909       0.685      0.00342
  15.45908       0.595      0.00337
  15.46907       0.518      0.00335
  15.47907       0.454      0.00332
  15.48906       0.402      0.00331
  15.49905       0.360      0.00330
  15.50904       0.326      0.00329
  15.51903       0.298      0.00329
  15.52903       0.273      0.00329
  15.53902       0.250      0.00329
  15.54901       0.227      0.00329
  15.55900       0.206      0.00330
  15.56900       0.186      0.00330
  15.57899       0.169      0.00331
  15.58898       0.155      0.00332
  15.59897       0.146      0.00333
  15.60897       0.140      0.00334
  15.61896       0.137      0.00336
  15.62895       0.137      0.00338
  15.63894       0.138      0.00340
  15.64893       0.141      0.00342
  15.65893       0.147      0.00345
  15.66892       0.155      0.00347
  15.67891       0.168      0.00350
  15.68890       0.186      0.00353
  15.69890       0.211      0.00358
  15.70889       0.243      0.00362
  15.71888       0.285      0.00368
  15.72887       0.337      0.00374
  15.73886       0.399      0.00381
  15.74886       0.475      0.00389
  15.75885       0.568      0.00398
  15.76884       0.679      0.00409
  15.77883       0.815      0.00422
  15.78883       0.979      0.00436
  15.79882       1.174      0.00452
  15.80881       1.401      0.00471
  15.81880       1.661      0.00492
  15.82880       1.953      0.00513
  15.83879       2.271      0.00537
  15.84878       2.612      0.00561
  15.85877       2.967      0.00586
  15.86876       3.326      0.00612
  15.87876       3.683      0.00635
  15.88875       4.019      0.00659
  15.89874       4.324      0.00681
  15.90873       4.578      0.00700
  15.91873       4.769      0.00716
  15.92872       4.883      0.00728
  15.93871       4.910      0.00737
  15.94870       4.847      0.00740
  15.95870       4.698      0.00739
  15.96869       4.470      0.00734
  15.97868       4.178      0.00724
  15.98867       3.841      0.00711
  15.99866       3.471      0.00696
  16.00866       3.091      0.00679
  16.01865       2.717      0.00662
  16.02864       2.352      0.00643
  16.03863       2.011      0.00625
  16.04863       1.700      0.00608
  16.05862       1.419      0.00592
  16.06861       1.178      0.00578
  16.07860       0.968      0.00567
  16.08860       0.795      0.00557
  16.09859       0.651      0.00550
  16.10858       0.536      0.00546
  16.11857       0.443      0.00544
  16.12856       0.371      0.00543
  16.13856       0.314      0.00544
  16.14855       0.269      0.00547
  16.15854       0.233      0.00551
  16.16853       0.205      0.00555
  16.17853       0.181      0.00562
  16.18852       0.162      0.00568
  16.19851       0.148      0.00576
  16.20850       0.139      0.00584
  16.21850       0.136      0.00595
  16.22849       0.138      0.00606
  16.23848       0.145      0.00620
  16.24847       0.152      0.00631
  16.25846       0.159      0.00647
  16.26846       0.163      0.00662
  16.27845       0.162      0.00677
  16.28844       0.159      0.00694
  16.29843       0.155      0.00710
  16.30843       0.147      0.00729
  16.31842       0.138      0.00747
  16.32841       0.123      0.00768
  16.33840       0.101      0.00789
  16.34839       0.073      0.00810
  16.35839       0.040      0.00836
  16.36838       0.008      0.00862
  16.37837      -0.018      0.00895
  16.38836      -0.036      0.00932
  16.39836      -0.042      0.00982
  16.40835      -0.038      0.01037
  16.41834      -0.024      0.01108
  16.42833      -0.003      0.01183
  16.43833       0.025      0.01251
  16.44832       0.052      0.01332
  16.45831       0.077      0.01407
  16.46830       0.096      0.01494
  16.47829       0.109      0.01596
  16.48829       0.110      0.01716
  16.49828       0.104      0.01872
  16.50827       0.087      0.02077
  16.51826       0.065      0.02335
  16.52826       0.040      0.02795
  16.53825       0.018      0.03533
  16.54824       0.002      0.05095
  16.55823       0.005      0.08090
