  1.54056
   4.00626      -0.016      0.00217
   4.01625      -0.009      0.00218
   4.02624      -0.009      0.00217
   4.03623      -0.000      0.00217
   4.04622       0.001      0.00217
   4.05620       0.007      0.00217
   4.06619       0.009      0.00216
   4.07618       0.006      0.00216
   4.08617       0.014      0.00215
   4.09616       0.018      0.00216
   4.10615       0.011      0.00215
   4.11613       0.014      0.00215
   4.12612       0.015      0.00215
   4.13611       0.006      0.00214
   4.14610       0.004      0.00213
   4.15609       0.006      0.00214
   4.16607      -0.003      0.00213
   4.17606       0.005      0.00213
   4.18605       0.009      0.00213
   4.19604       0.010      0.00212
   4.20603       0.022      0.00212
   4.21602       0.023      0.00212
   4.22600       0.027      0.00212
   4.23599       0.034      0.00212
   4.24598       0.031      0.00212
   4.25597       0.032      0.00211
   4.26596       0.032      0.00211
   4.27594       0.028      0.00211
   4.28593       0.028      0.00210
   4.29592       0.027      0.00210
   4.30591       0.025      0.00210
   4.31590       0.027      0.00209
   4.32589       0.034      0.00210
   4.33587       0.031      0.00209
   4.34586       0.030      0.00209
   4.35585       0.039      0.00209
   4.36584       0.041      0.00209
   4.37583       0.046      0.00208
   4.38581       0.045      0.00209
   4.39580       0.055      0.00208
   4.40579       0.059      0.00209
   4.41578       0.054      0.00208
   4.42577       0.061      0.00208
   4.43576       0.065      0.00208
   4.44574       0.053      0.00208
   4.45573       0.053      0.00207
   4.46572       0.054      0.00207
   4.47571       0.041      0.00206
   4.48570       0.037      0.00206
   4.49568       0.040      0.00206
   4.50567       0.037      0.00206
   4.51566       0.041      0.00205
   4.52565       0.043      0.00205
   4.53564       0.044      0.00205
   4.54563       0.050      0.00205
   4.55561       0.047      0.00204
   4.56560       0.043      0.00204
   4.57559       0.047      0.00204
   4.58558       0.042      0.00204
   4.59557       0.041      0.00203
   4.60555       0.049      0.00203
   4.61554       0.041      0.00203
   4.62553       0.051      0.00203
   4.63552       0.056      0.00203
   4.64551       0.056      0.00203
   4.65550       0.063      0.00202
   4.66548       0.071      0.00203
   4.67547       0.071      0.00203
   4.68546       0.077      0.00202
   4.69545       0.080      0.00202
   4.70544       0.075      0.00202
   4.71542       0.076      0.00201
   4.72541       0.076      0.00201
   4.73540       0.069      0.00201
   4.74539       0.080      0.00201
   4.75538       0.073      0.00201
   4.76537       0.069      0.00200
   4.77535       0.077      0.00200
   4.78534       0.067      0.00200
   4.79533       0.064      0.00200
   4.80532       0.071      0.00200
   4.81531       0.070      0.00200
   4.82530       0.067      0.00199
   4.83528       0.073      0.00199
   4.84527       0.074      0.00199
   4.85526       0.073      0.00199
   4.86525       0.075      0.00199
   4.87524       0.083      0.00199
   4.88522       0.086      0.00198
   4.89521       0.089      0.00198
   4.90520       0.086      0.00198
   4.91519       0.091      0.00198
   4.92518       0.089      0.00198
   4.93517       0.086      0.00198
   4.94515       0.095      0.00198
   4.95514       0.099      0.00198
   4.96513       0.093      0.00197
   4.97512       0.104      0.00197
   4.98511       0.098      0.00197
   4.99509       0.097      0.00197
   5.00508       0.090      0.00196
   5.01507       0.084      0.00196
   5.02506       0.079      0.00196
   5.03505       0.068      0.00195
   5.04504       0.059      0.00195
   5.05502       0.058      0.00195
   5.06501       0.053      0.00194
   5.07500       0.044      0.00194
   5.08499       0.040      0.00193
   5.09498       0.040      0.00193
   5.10496       0.040      0.00193
   5.11495       0.042      0.00193
   5.12494       0.043      0.00193
   5.13493       0.045      0.00193
   5.14492       0.052      0.00193
   5.15491       0.045      0.00193
   5.16489       0.047      0.00192
   5.17488       0.046      0.00192
   5.18487       0.037      0.00192
   5.19486       0.031      0.00191
   5.20485       0.028      0.00191
   5.21483       0.012      0.00191
   5.22482       0.020      0.00190
   5.23481       0.033      0.00191
   5.24480       0.042      0.00191
   5.25479       0.051      0.00191
   5.26478       0.064      0.00191
   5.27476       0.061      0.00191
   5.28475       0.067      0.00191
   5.29474       0.068      0.00191
   5.30473       0.068      0.00191
   5.31472       0.068      0.00190
   5.32470       0.069      0.00190
   5.33469       0.055      0.00190
   5.34468       0.046      0.00189
   5.35467       0.034      0.00189
   5.36466       0.032      0.00189
   5.37465       0.031      0.00188
   5.38463       0.032      0.00189
   5.39462       0.041      0.00188
   5.40461       0.042      0.00188
   5.41460       0.046      0.00188
   5.42459       0.050      0.00188
   5.43457       0.050      0.00188
   5.44456       0.047      0.00188
   5.45455       0.048      0.00187
   5.46454       0.045      0.00187
   5.47453       0.043      0.00187
   5.48452       0.046      0.00187
   5.49450       0.042      0.00187
   5.50449       0.038      0.00186
   5.51448       0.041      0.00186
   5.52447       0.036      0.00186
   5.53446       0.040      0.00186
   5.54444       0.044      0.00186
   5.55443       0.042      0.00186
   5.56442       0.046      0.00185
   5.57441       0.048      0.00185
   5.58440       0.035      0.00185
   5.59439       0.035      0.00185
   5.60437       0.028      0.00184
   5.61436       0.023      0.00184
   5.62435       0.027      0.00184
   5.63434       0.027      0.00184
   5.64433       0.021      0.00184
   5.65431       0.029      0.00183
   5.66430       0.034      0.00184
   5.67429       0.033      0.00183
   5.68428       0.045      0.00184
   5.69427       0.045      0.00183
   5.70426       0.040      0.00183
   5.71424       0.042      0.00183
   5.72423       0.034      0.00183
   5.73422       0.025      0.00182
   5.74421       0.026      0.00182
   5.75420       0.020      0.00182
   5.76418       0.020      0.00182
   5.77417       0.015      0.00181
   5.78416       0.010      0.00181
   5.79415       0.011      0.00181
   5.80414       0.011      0.00181
   5.81413       0.007      0.00181
   5.82411       0.012      0.00180
   5.83410       0.010      0.00181
   5.84409       0.007      0.00180
   5.85408       0.012      0.00180
   5.86407       0.011      0.00180
   5.87405       0.015      0.00180
   5.88404       0.021      0.00180
   5.89403       0.018      0.00180
   5.90402       0.022      0.00179
   5.91401       0.029      0.00180
   5.92400       0.029      0.00180
   5.93398       0.034      0.00179
   5.94397       0.045      0.00179
   5.95396       0.044      0.00180
   5.96395       0.047      0.00179
   5.97394       0.053      0.00179
   5.98392       0.049      0.00179
   5.99391       0.053      0.00179
   6.00390       0.059      0.00179
   6.01389       0.070      0.00179
   6.02388       0.078      0.00179
   6.03387       0.081      0.00179
   6.04385       0.096      0.00179
   6.05384       0.108      0.00179
   6.06383       0.113      0.00179
   6.07382       0.125      0.00179
   6.08381       0.137      0.00179
   6.09379       0.139      0.00179
   6.10378       0.146      0.00178
   6.11377       0.157      0.00178
   6.12376       0.156      0.00179
   6.13375       0.170      0.00178
   6.14374       0.191      0.00179
   6.15372       0.203      0.00178
   6.16371       0.226      0.00178
   6.17370       0.253      0.00179
   6.18369       0.291      0.00179
   6.19368       0.342      0.00179
   6.20367       0.404      0.00180
   6.21365       0.482      0.00181
   6.22364       0.586      0.00182
   6.23363       0.716      0.00183
   6.24362       0.883      0.00185
   6.25361       1.099      0.00187
   6.26359       1.379      0.00190
   6.27358       1.741      0.00194
   6.28357       2.177      0.00198
   6.29356       2.712      0.00204
   6.30355       3.359      0.00210
   6.31354       4.106      0.00217
   6.32352       4.975      0.00224
   6.33351       5.994      0.00233
   6.34350       7.110      0.00243
   6.35349       8.370      0.00252
   6.36348       9.742      0.00263
   6.37346      11.201      0.00274
   6.38345      12.716      0.00284
   6.39344      14.286      0.00294
   6.40343      15.835      0.00305
   6.41342      17.343      0.00314
   6.42341      18.789      0.00322
   6.43339      20.072      0.00330
   6.44338      21.241      0.00336
   6.45337      22.190      0.00342
   6.46336      22.890      0.00346
   6.47335      23.392      0.00348
   6.48333      23.616      0.00349
   6.49332      23.557      0.00348
   6.50331      23.240      0.00346
   6.51330      22.669      0.00343
   6.52329      21.840      0.00338
   6.53328      20.829      0.00331
   6.54326      19.586      0.00324
   6.55325      18.210      0.00315
   6.56324      16.714      0.00306
   6.57323      15.166      0.00296
   6.58322      13.589      0.00285
   6.59320      12.012      0.00274
   6.60319      10.494      0.00263
   6.61318       9.069      0.00252
   6.62317       7.714      0.00241
   6.63316       6.490      0.00231
   6.64315       5.404      0.00222
   6.65313       4.435      0.00214
   6.66312       3.583      0.00205
   6.67311       2.888      0.00199
   6.68310       2.286      0.00193
   6.69309       1.794      0.00188
   6.70307       1.408      0.00183
   6.71306       1.096      0.00180
   6.72305       0.854      0.00177
   6.73304       0.670      0.00175
   6.74303       0.528      0.00174
   6.75302       0.422      0.00172
   6.76300       0.345      0.00171
   6.77299       0.281      0.00171
   6.78298       0.238      0.00170
   6.79297       0.201      0.00170
   6.80296       0.174      0.00169
   6.81294       0.161      0.00169
   6.82293       0.143      0.00169
   6.83292       0.126      0.00168
   6.84291       0.121      0.00168
   6.85290       0.108      0.00168
   6.86289       0.102      0.00168
   6.87287       0.104      0.00168
   6.88286       0.102      0.00168
   6.89285       0.098      0.00167
   6.90284       0.096      0.00167
   6.91283       0.087      0.00167
   6.92281       0.083      0.00167
   6.93280       0.080      0.00167
   6.94279       0.072      0.00167
   6.95278       0.072      0.00166
   6.96277       0.065      0.00166
   6.97276       0.055      0.00166
   6.98274       0.050      0.00165
   6.99273       0.042      0.00165
   7.00272       0.039      0.00165
   7.01271       0.037      0.00165
   7.02270       0.033      0.00165
   7.03268       0.031      0.00165
   7.04267       0.030      0.00165
   7.05266       0.028      0.00164
   7.06265       0.030      0.00164
   7.07264       0.027      0.00164
   7.08263       0.019      0.00164
   7.09261       0.017      0.00164
   7.10260       0.012      0.00163
   7.11259       0.002      0.00163
   7.12258       0.012      0.00163
   7.13257       0.015      0.00163
   7.14255       0.016      0.00163
   7.15254       0.021      0.00163
   7.16253       0.018      0.00163
   7.17252       0.019      0.00163
   7.18251       0.017      0.00163
   7.19250       0.013      0.00163
   7.20248       0.014      0.00162
   7.21247       0.015      0.00162
   7.22246       0.011      0.00163
   7.23245       0.015      0.00162
   7.24244       0.015      0.00162
   7.25242       0.011      0.00162
   7.26241       0.019      0.00162
   7.27240       0.025      0.00162
   7.28239       0.025      0.00162
   7.29238       0.028      0.00161
   7.30237       0.028      0.00162
   7.31235       0.020      0.00161
   7.32234       0.017      0.00161
   7.33233       0.007      0.00161
   7.34232       0.004      0.00160
   7.35231       0.004      0.00160
   7.36229      -0.002      0.00160
   7.37228       0.001      0.00160
   7.38227      -0.002      0.00160
   7.39226      -0.004      0.00160
   7.40225       0.003      0.00160
   7.41224       0.006      0.00160
   7.42222       0.003      0.00160
   7.43221       0.009      0.00160
   7.44220       0.008      0.00160
   7.45219       0.003      0.00159
   7.46218       0.011      0.00159
   7.47216       0.008      0.00159
   7.48215       0.008      0.00159
   7.49214       0.014      0.00159
   7.50213       0.010      0.00159
   7.51212       0.004      0.00158
   7.52211       0.006      0.00159
   7.53209       0.001      0.00158
   7.54208      -0.001      0.00158
   7.55207       0.003      0.00158
   7.56206      -0.001      0.00158
   7.57205       0.002      0.00158
   7.58204       0.005      0.00158
   7.59202       0.003      0.00158
   7.60201       0.007      0.00157
   7.61200       0.015      0.00158
   7.62199       0.012      0.00158
   7.63198       0.012      0.00157
   7.64196       0.011      0.00157
   7.65195       0.012      0.00157
   7.66194       0.009      0.00157
   7.67193       0.006      0.00157
   7.68192       0.013      0.00157
   7.69191       0.016      0.00157
   7.70189       0.017      0.00157
   7.71188       0.022      0.00157
   7.72187       0.026      0.00157
   7.73186       0.022      0.00157
   7.74185       0.030      0.00157
   7.75183       0.031      0.00156
   7.76182       0.026      0.00156
   7.77181       0.028      0.00156
   7.78180       0.022      0.00156
   7.79179       0.020      0.00156
   7.80178       0.015      0.00155
   7.81176       0.009      0.00156
   7.82175       0.007      0.00155
   7.83174       0.007      0.00155
   7.84173       0.001      0.00155
   7.85172      -0.003      0.00155
   7.86170      -0.003      0.00155
   7.87169      -0.010      0.00155
   7.88168      -0.004      0.00155
   7.89167      -0.007      0.00154
   7.90166      -0.006      0.00154
   7.91165       0.002      0.00154
   7.92163      -0.001      0.00154
   7.93162      -0.000      0.00154
   7.94161       0.003      0.00154
   7.95160       0.002      0.00154
   7.96159       0.003      0.00154
   7.97157       0.011      0.00154
   7.98156       0.008      0.00154
   7.99155       0.013      0.00154
   8.00154       0.020      0.00154
   8.01153       0.022      0.00154
   8.02152       0.022      0.00154
   8.03150       0.027      0.00154
   8.04149       0.026      0.00154
   8.05148       0.025      0.00153
   8.06147       0.026      0.00154
   8.07146       0.022      0.00153
   8.08144       0.024      0.00153
   8.09143       0.022      0.00153
   8.10142       0.023      0.00153
   8.11141       0.025      0.00153
   8.12140       0.022      0.00153
   8.13139       0.023      0.00153
   8.14137       0.021      0.00152
   8.15136       0.016      0.00152
   8.16135       0.013      0.00152
   8.17134       0.009      0.00152
   8.18133       0.006      0.00152
   8.19131       0.011      0.00152
   8.20130       0.010      0.00152
   8.21129       0.010      0.00152
   8.22128       0.014      0.00152
   8.23127       0.010      0.00152
   8.24126       0.010      0.00151
   8.25124       0.009      0.00151
   8.26123       0.006      0.00151
   8.27122       0.006      0.00151
   8.28121       0.008      0.00151
   8.29120       0.004      0.00151
   8.30118       0.006      0.00151
   8.31117       0.009      0.00151
   8.32116      -0.001      0.00150
   8.33115       0.004      0.00150
   8.34114       0.002      0.00150
   8.35113      -0.003      0.00150
   8.36111       0.004      0.00150
   8.37110      -0.001      0.00150
   8.38109       0.002      0.00150
   8.39108       0.008      0.00150
   8.40107       0.009      0.00150
   8.41105       0.011      0.00150
   8.42104       0.018      0.00150
   8.43103       0.015      0.00150
   8.44102       0.013      0.00149
   8.45101       0.014      0.00150
   8.46100       0.006      0.00149
   8.47098       0.007      0.00149
   8.48097       0.006      0.00149
   8.49096       0.007      0.00149
   8.50095       0.011      0.00149
   8.51094       0.008      0.00149
   8.52092       0.009      0.00149
   8.53091       0.007      0.00149
   8.54090       0.003      0.00149
   8.55089      -0.001      0.00148
   8.56088      -0.003      0.00148
   8.57087      -0.009      0.00148
   8.58085      -0.010      0.00148
   8.59084      -0.006      0.00148
   8.60083      -0.010      0.00148
   8.61082      -0.003      0.00148
   8.62081       0.003      0.00148
   8.63079       0.005      0.00148
   8.64078       0.012      0.00148
   8.65077       0.012      0.00148
   8.66076       0.013      0.00148
   8.67075       0.014      0.00148
   8.68074       0.015      0.00148
   8.69072       0.014      0.00147
   8.70071       0.018      0.00148
   8.71070       0.018      0.00147
   8.72069       0.016      0.00147
   8.73068       0.016      0.00147
   8.74066       0.012      0.00147
   8.75065       0.017      0.00147
   8.76064       0.016      0.00147
   8.77063       0.018      0.00147
   8.78062       0.021      0.00147
   8.79061       0.017      0.00147
   8.80059       0.017      0.00147
   8.81058       0.012      0.00147
   8.82057       0.008      0.00146
   8.83056       0.007      0.00146
   8.84055       0.006      0.00146
   8.85053       0.003      0.00146
   8.86052       0.004      0.00146
   8.87051       0.006      0.00146
   8.88050       0.003      0.00146
   8.89049       0.012      0.00146
   8.90048       0.010      0.00146
   8.91046       0.008      0.00146
   8.92045       0.014      0.00146
   8.93044       0.013      0.00146
   8.94043       0.016      0.00146
   8.95042       0.023      0.00146
   8.96041       0.025      0.00146
   8.97039       0.028      0.00146
   8.98038       0.032      0.00146
   8.99037       0.026      0.00145
   9.00036       0.027      0.00145
   9.01035       0.027      0.00146
   9.02033       0.017      0.00145
   9.03032       0.017      0.00145
   9.04031       0.011      0.00145
   9.05030       0.001      0.00145
   9.06029      -0.001      0.00145
   9.07028      -0.002      0.00145
   9.08026      -0.006      0.00145
   9.09025      -0.006      0.00144
   9.10024      -0.003      0.00144
   9.11023      -0.004      0.00144
   9.12022      -0.003      0.00144
   9.13020      -0.000      0.00144
   9.14019       0.005      0.00144
   9.15018       0.001      0.00144
   9.16017      -0.001      0.00144
   9.17016       0.003      0.00144
   9.18015       0.001      0.00144
   9.19013      -0.000      0.00144
   9.20012       0.007      0.00144
   9.21011       0.008      0.00144
   9.22010       0.012      0.00144
   9.23009       0.014      0.00144
   9.24007       0.012      0.00143
   9.25006       0.011      0.00143
   9.26005       0.010      0.00143
   9.27004       0.008      0.00143
   9.28003       0.008      0.00143
   9.29002       0.003      0.00143
   9.30000      -0.002      0.00143
   9.30999       0.002      0.00143
   9.31998       0.001      0.00143
   9.32997      -0.003      0.00143
   9.33996       0.003      0.00143
   9.34994       0.003      0.00143
   9.35993       0.002      0.00143
   9.36992       0.004      0.00143
   9.37991       0.002      0.00142
   9.38990      -0.001      0.00142
   9.39989      -0.005      0.00142
   9.40987      -0.003      0.00142
   9.41986      -0.005      0.00142
   9.42985      -0.009      0.00142
   9.43984      -0.006      0.00142
   9.44983       0.001      0.00142
   9.45981       0.001      0.00142
   9.46980       0.002      0.00142
   9.47979       0.006      0.00142
   9.48978       0.007      0.00142
   9.49977       0.003      0.00142
   9.50976       0.005      0.00142
   9.51974      -0.002      0.00141
   9.52973      -0.003      0.00141
   9.53972      -0.005      0.00141
   9.54971      -0.007      0.00141
   9.55970      -0.002      0.00141
   9.56968      -0.002      0.00141
   9.57967      -0.002      0.00141
   9.58966       0.005      0.00141
   9.59965       0.004      0.00141
   9.60964       0.009      0.00141
   9.61963       0.012      0.00141
   9.62961       0.019      0.00141
   9.63960       0.025      0.00141
   9.64959       0.027      0.00141
   9.65958       0.027      0.00141
   9.66957       0.031      0.00141
   9.67955       0.024      0.00141
   9.68954       0.016      0.00141
   9.69953       0.019      0.00141
   9.70952       0.011      0.00141
   9.71951       0.004      0.00140
   9.72950       0.009      0.00141
   9.73948       0.003      0.00140
   9.74947       0.003      0.00140
   9.75946       0.004      0.00140
   9.76945       0.002      0.00140
   9.77944       0.006      0.00140
   9.78942       0.010      0.00140
   9.79941       0.012      0.00140
   9.80940       0.014      0.00140
   9.81939       0.015      0.00140
   9.82938       0.009      0.00140
   9.83937       0.012      0.00140
   9.84935       0.010      0.00140
   9.85934       0.004      0.00140
   9.86933       0.005      0.00140
   9.87932       0.001      0.00140
   9.88931      -0.006      0.00139
   9.89929      -0.010      0.00140
   9.90928      -0.012      0.00140
   9.91927      -0.010      0.00140
   9.92926      -0.008      0.00140
   9.93925      -0.006      0.00141
   9.94924       0.003      0.00141
   9.95922       0.003      0.00141
   9.96921       0.005      0.00141
   9.97920       0.010      0.00142
   9.98919       0.011      0.00142
   9.99918       0.011      0.00142
  10.00916       0.012      0.00142
  10.01915       0.009      0.00142
  10.02914       0.008      0.00143
  10.03913       0.003      0.00143
  10.04912       0.003      0.00143
  10.05911       0.004      0.00143
  10.06909       0.005      0.00143
  10.07908       0.004      0.00143
  10.08907       0.008      0.00143
  10.09906       0.009      0.00143
  10.10905       0.008      0.00143
  10.11903       0.014      0.00144
  10.12902       0.017      0.00144
  10.13901       0.017      0.00144
  10.14900       0.017      0.00144
  10.15899       0.016      0.00144
  10.16898       0.018      0.00144
  10.17896       0.016      0.00144
  10.18895       0.011      0.00144
  10.19894       0.012      0.00144
  10.20893       0.008      0.00144
  10.21892       0.004      0.00144
  10.22891       0.009      0.00144
  10.23889       0.007      0.00144
  10.24888       0.006      0.00144
  10.25887       0.008      0.00144
  10.26886       0.004      0.00144
  10.27885      -0.001      0.00144
  10.28883       0.001      0.00144
  10.29882       0.002      0.00144
  10.30881       0.006      0.00144
  10.31880       0.007      0.00145
  10.32879       0.012      0.00144
  10.33878       0.014      0.00145
  10.34876       0.012      0.00145
  10.35875       0.018      0.00145
  10.36874       0.017      0.00145
  10.37873       0.010      0.00145
  10.38872       0.010      0.00145
  10.39870       0.004      0.00145
  10.40869      -0.005      0.00145
  10.41868       0.001      0.00145
  10.42867      -0.002      0.00145
  10.43866      -0.008      0.00145
  10.44865      -0.000      0.00145
  10.45863      -0.001      0.00145
  10.46862      -0.004      0.00145
  10.47861       0.005      0.00145
  10.48860       0.006      0.00145
  10.49859       0.007      0.00145
  10.50857       0.012      0.00145
  10.51856       0.008      0.00145
  10.52855       0.008      0.00145
  10.53854       0.005      0.00145
  10.54853       0.002      0.00145
  10.55852       0.003      0.00145
  10.56850      -0.005      0.00145
  10.57849      -0.006      0.00145
  10.58848      -0.006      0.00145
  10.59847      -0.009      0.00145
  10.60846      -0.005      0.00145
  10.61844       0.001      0.00145
  10.62843       0.009      0.00145
  10.63842       0.014      0.00145
  10.64841       0.016      0.00146
  10.65840       0.019      0.00146
  10.66839       0.021      0.00146
  10.67837       0.018      0.00146
  10.68836       0.021      0.00146
  10.69835       0.026      0.00146
  10.70834       0.022      0.00147
  10.71833       0.023      0.00147
  10.72831       0.019      0.00147
  10.73830       0.013      0.00148
  10.74829       0.012      0.00148
  10.75828       0.010      0.00149
  10.76827       0.007      0.00149
  10.77826       0.010      0.00149
  10.78824       0.010      0.00149
  10.79823       0.006      0.00149
  10.80822       0.012      0.00149
  10.81821       0.010      0.00149
  10.82820       0.012      0.00149
  10.83818       0.017      0.00150
  10.84817       0.018      0.00150
  10.85816       0.016      0.00150
  10.86815       0.013      0.00150
  10.87814       0.009      0.00150
  10.88813       0.005      0.00150
  10.89811       0.001      0.00150
  10.90810      -0.002      0.00150
  10.91809       0.002      0.00151
  10.92808      -0.001      0.00151
  10.93807      -0.001      0.00151
  10.94805       0.005      0.00151
  10.95804       0.002      0.00151
  10.96803       0.004      0.00151
  10.97802       0.003      0.00152
  10.98801      -0.003      0.00152
  10.99800      -0.004      0.00152
  11.00798      -0.009      0.00152
  11.01797      -0.010      0.00152
  11.02796      -0.000      0.00152
  11.03795      -0.001      0.00152
  11.04794      -0.001      0.00152
  11.05792       0.010      0.00153
  11.06791       0.014      0.00153
  11.07790       0.015      0.00153
  11.08789       0.026      0.00154
  11.09788       0.026      0.00154
  11.10787       0.028      0.00155
  11.11785       0.028      0.00156
  11.12784       0.024      0.00156
  11.13783       0.024      0.00157
  11.14782       0.024      0.00157
  11.15781       0.022      0.00157
  11.16779       0.024      0.00158
  11.17778       0.018      0.00158
  11.18777       0.016      0.00158
  11.19776       0.011      0.00159
  11.20775       0.010      0.00159
  11.21774       0.008      0.00159
  11.22772       0.008      0.00159
  11.23771       0.006      0.00159
  11.24770       0.007      0.00160
  11.25769       0.002      0.00160
  11.26768       0.002      0.00160
  11.27766       0.006      0.00161
  11.28765       0.009      0.00161
  11.29764       0.011      0.00161
  11.30763       0.014      0.00162
  11.31762       0.014      0.00162
  11.32761       0.015      0.00162
  11.33759       0.010      0.00162
  11.34758       0.006      0.00163
  11.35757       0.010      0.00163
  11.36756       0.003      0.00163
  11.37755      -0.005      0.00163
  11.38753       0.010      0.00164
  11.39752       0.008      0.00164
  11.40751       0.014      0.00165
  11.41750       0.026      0.00165
  11.42749       0.024      0.00165
  11.43748       0.023      0.00166
  11.44746       0.027      0.00166
  11.45745       0.027      0.00166
  11.46744       0.028      0.00166
  11.47743       0.029      0.00167
  11.48742       0.023      0.00167
  11.49740       0.027      0.00167
  11.50739       0.022      0.00167
  11.51738       0.015      0.00167
  11.52737       0.024      0.00168
  11.53736       0.018      0.00168
  11.54735       0.011      0.00168
  11.55733       0.014      0.00169
  11.56732       0.004      0.00169
  11.57731       0.001      0.00169
  11.58730       0.001      0.00169
  11.59729      -0.004      0.00169
  11.60728      -0.002      0.00170
  11.61726      -0.004      0.00170
  11.62725      -0.008      0.00170
  11.63724      -0.009      0.00170
  11.64723      -0.011      0.00171
  11.65722      -0.011      0.00171
  11.66720      -0.010      0.00171
  11.67719      -0.010      0.00171
  11.68718      -0.005      0.00171
  11.69717      -0.002      0.00172
  11.70716      -0.003      0.00172
  11.71715       0.005      0.00172
  11.72713       0.003      0.00173
  11.73712       0.000      0.00173
  11.74711       0.005      0.00173
  11.75710       0.004      0.00173
  11.76709       0.007      0.00174
  11.77707       0.015      0.00174
  11.78706       0.017      0.00175
  11.79705       0.023      0.00175
  11.80704       0.027      0.00175
  11.81703       0.028      0.00176
  11.82702       0.036      0.00176
  11.83700       0.035      0.00176
  11.84699       0.035      0.00176
  11.85698       0.033      0.00177
  11.86697       0.026      0.00177
  11.87696       0.018      0.00177
  11.88694       0.006      0.00177
  11.89693      -0.003      0.00177
  11.90692      -0.002      0.00177
  11.91691      -0.008      0.00177
  11.92690      -0.009      0.00178
  11.93689      -0.002      0.00178
  11.94687      -0.005      0.00178
  11.95686      -0.003      0.00178
  11.96685       0.006      0.00179
  11.97684       0.002      0.00179
  11.98683       0.005      0.00179
  11.99681       0.006      0.00180
  12.00680       0.002      0.00180
  12.01679       0.011      0.00180
  12.02678       0.011      0.00180
  12.03677       0.016      0.00181
  12.04676       0.025      0.00181
  12.05674       0.021      0.00181
  12.06673       0.025      0.00182
  12.07672       0.028      0.00182
  12.08671       0.022      0.00182
  12.09670       0.026      0.00182
  12.10668       0.033      0.00183
  12.11667       0.023      0.00183
  12.12666       0.023      0.00183
  12.13665       0.022      0.00183
  12.14664       0.012      0.00184
  12.15663       0.017      0.00184
  12.16661       0.015      0.00184
  12.17660       0.013      0.00184
  12.18659       0.010      0.00184
  12.19658       0.006      0.00185
  12.20657       0.005      0.00185
  12.21655      -0.006      0.00185
  12.22654      -0.010      0.00185
  12.23653      -0.002      0.00185
  12.24652      -0.009      0.00186
  12.25651      -0.013      0.00186
  12.26650      -0.005      0.00186
  12.27648      -0.014      0.00186
  12.28647      -0.013      0.00187
  12.29646      -0.007      0.00187
  12.30645      -0.009      0.00187
  12.31644      -0.002      0.00187
  12.32642       0.004      0.00188
  12.33641       0.003      0.00188
  12.34640       0.015      0.00189
  12.35639       0.018      0.00189
  12.36638       0.020      0.00189
  12.37637       0.025      0.00190
  12.38635       0.026      0.00190
  12.39634       0.034      0.00190
  12.40633       0.041      0.00191
  12.41632       0.041      0.00191
  12.42631       0.048      0.00191
  12.43629       0.041      0.00192
  12.44628       0.027      0.00191
  12.45627       0.027      0.00192
  12.46626       0.012      0.00192
  12.47625       0.001      0.00192
  12.48624       0.004      0.00192
  12.49622      -0.003      0.00192
  12.50621      -0.000      0.00193
  12.51620      -0.001      0.00193
  12.52619      -0.001      0.00193
  12.53618       0.002      0.00194
  12.54616      -0.005      0.00194
  12.55615      -0.014      0.00194
  12.56614      -0.005      0.00195
  12.57613      -0.016      0.00194
  12.58612      -0.020      0.00195
  12.59611      -0.016      0.00195
  12.60609      -0.024      0.00195
  12.61608      -0.024      0.00195
  12.62607      -0.029      0.00196
  12.63606      -0.030      0.00196
  12.64605      -0.014      0.00197
  12.65603      -0.012      0.00197
  12.66602      -0.018      0.00197
  12.67601       0.011      0.00198
  12.68600       0.039      0.00199
  12.69599       0.053      0.00200
  12.70598       0.094      0.00202
  12.71596       0.135      0.00203
  12.72595       0.163      0.00205
  12.73594       0.193      0.00206
  12.74593       0.219      0.00207
  12.75592       0.243      0.00209
  12.76590       0.264      0.00210
  12.77589       0.282      0.00211
  12.78588       0.297      0.00212
  12.79587       0.311      0.00213
  12.80586       0.324      0.00214
  12.81585       0.334      0.00215
  12.82583       0.343      0.00216
  12.83582       0.351      0.00217
  12.84581       0.357      0.00218
  12.85580       0.364      0.00219
  12.86579       0.371      0.00219
  12.87577       0.379      0.00220
  12.88576       0.389      0.00221
  12.89575       0.397      0.00222
  12.90574       0.404      0.00223
  12.91573       0.409      0.00224
  12.92572       0.411      0.00225
  12.93570       0.411      0.00225
  12.94569       0.410      0.00226
  12.95568       0.408      0.00227
  12.96567       0.407      0.00228
  12.97566       0.405      0.00228
  12.98565       0.405      0.00229
  12.99563       0.405      0.00230
  13.00562       0.404      0.00231
  13.01561       0.402      0.00231
  13.02560       0.400      0.00232
  13.03559       0.396      0.00233
  13.04557       0.391      0.00234
  13.05556       0.383      0.00234
  13.06555       0.373      0.00235
  13.07554       0.363      0.00236
  13.08553       0.350      0.00236
  13.09552       0.337      0.00237
  13.10550       0.326      0.00238
  13.11549       0.315      0.00238
  13.12548       0.304      0.00239
  13.13547       0.294      0.00240
  13.14546       0.285      0.00240
  13.15544       0.275      0.00241
  13.16543       0.266      0.00242
  13.17542       0.258      0.00242
  13.18541       0.249      0.00243
  13.19540       0.241      0.00244
  13.20539       0.232      0.00244
  13.21537       0.220      0.00245
  13.22536       0.210      0.00246
  13.23535       0.200      0.00246
  13.24534       0.191      0.00247
  13.25533       0.186      0.00248
  13.26531       0.184      0.00248
  13.27530       0.185      0.00250
  13.28529       0.189      0.00250
  13.29528       0.193      0.00251
  13.30527       0.197      0.00252
  13.31526       0.197      0.00253
  13.32524       0.194      0.00253
  13.33523       0.188      0.00254
  13.34522       0.181      0.00255
  13.35521       0.174      0.00256
  13.36520       0.170      0.00256
  13.37518       0.168      0.00258
  13.38517       0.170      0.00258
  13.39516       0.172      0.00259
  13.40515       0.174      0.00260
  13.41514       0.174      0.00261
  13.42513       0.171      0.00261
  13.43511       0.167      0.00262
  13.44510       0.162      0.00263
  13.45509       0.159      0.00264
  13.46508       0.157      0.00265
  13.47507       0.159      0.00265
  13.48505       0.162      0.00267
  13.49504       0.165      0.00267
  13.50503       0.168      0.00269
  13.51502       0.168      0.00269
  13.52501       0.169      0.00270
  13.53500       0.170      0.00271
  13.54498       0.171      0.00272
  13.55497       0.173      0.00273
  13.56496       0.177      0.00274
  13.57495       0.183      0.00275
  13.58494       0.189      0.00276
  13.59492       0.198      0.00277
  13.60491       0.207      0.00278
  13.61490       0.216      0.00279
  13.62489       0.227      0.00280
  13.63488       0.237      0.00281
  13.64487       0.250      0.00282
  13.65485       0.266      0.00284
  13.66484       0.286      0.00284
  13.67483       0.315      0.00286
  13.68482       0.352      0.00287
  13.69481       0.400      0.00289
  13.70479       0.460      0.00291
  13.71478       0.532      0.00293
  13.72477       0.620      0.00295
  13.73476       0.720      0.00297
  13.74475       0.839      0.00300
  13.75474       0.972      0.00303
  13.76472       1.128      0.00305
  13.77471       1.302      0.00309
  13.78470       1.503      0.00313
  13.79469       1.728      0.00317
  13.80468       1.979      0.00321
  13.81466       2.263      0.00326
  13.82465       2.573      0.00331
  13.83464       2.914      0.00337
  13.84463       3.281      0.00342
  13.85462       3.668      0.00348
  13.86461       4.078      0.00355
  13.87459       4.499      0.00361
  13.88458       4.936      0.00367
  13.89457       5.377      0.00374
  13.90456       5.818      0.00381
  13.91455       6.249      0.00386
  13.92453       6.673      0.00392
  13.93452       7.071      0.00399
  13.94451       7.437      0.00405
  13.95450       7.763      0.00409
  13.96449       8.046      0.00414
  13.97448       8.277      0.00418
  13.98446       8.450      0.00422
  13.99445       8.566      0.00424
  14.00444       8.622      0.00426
  14.01443       8.614      0.00428
  14.02442       8.547      0.00429
  14.03440       8.424      0.00429
  14.04439       8.245      0.00428
  14.05438       8.020      0.00427
  14.06437       7.747      0.00426
  14.07436       7.437      0.00424
  14.08435       7.094      0.00421
  14.09433       6.731      0.00419
  14.10432       6.352      0.00416
  14.11431       5.962      0.00412
  14.12430       5.570      0.00409
  14.13429       5.182      0.00406
  14.14427       4.806      0.00402
  14.15426       4.432      0.00399
  14.16425       4.082      0.00396
  14.17424       3.755      0.00394
  14.18423       3.462      0.00391
  14.19422       3.197      0.00388
  14.20420       2.975      0.00387
  14.21419       2.792      0.00386
  14.22418       2.653      0.00385
  14.23417       2.558      0.00386
  14.24416       2.508      0.00386
  14.25414       2.507      0.00389
  14.26413       2.559      0.00390
  14.27412       2.662      0.00393
  14.28411       2.823      0.00398
  14.29410       3.044      0.00403
  14.30409       3.324      0.00408
  14.31407       3.654      0.00415
  14.32406       4.036      0.00423
  14.33405       4.467      0.00431
  14.34404       4.937      0.00439
  14.35403       5.434      0.00447
  14.36402       5.965      0.00457
  14.37400       6.527      0.00467
  14.38399       7.093      0.00476
  14.39398       7.663      0.00486
  14.40397       8.230      0.00496
  14.41396       8.775      0.00504
  14.42394       9.278      0.00514
  14.43393       9.730      0.00522
  14.44392      10.116      0.00529
  14.45391      10.422      0.00536
  14.46390      10.636      0.00541
  14.47389      10.752      0.00545
  14.48387      10.765      0.00546
  14.49386      10.672      0.00547
  14.50385      10.477      0.00547
  14.51384      10.186      0.00545
  14.52383       9.808      0.00541
  14.53381       9.350      0.00538
  14.54380       8.828      0.00534
  14.55379       8.249      0.00527
  14.56378       7.640      0.00520
  14.57377       7.001      0.00515
  14.58376       6.353      0.00507
  14.59374       5.711      0.00498
  14.60373       5.101      0.00491
  14.61372       4.518      0.00485
  14.62371       3.969      0.00477
  14.63370       3.474      0.00472
  14.64368       3.028      0.00465
  14.65367       2.613      0.00461
  14.66366       2.241      0.00456
  14.67365       1.909      0.00453
  14.68364       1.616      0.00449
  14.69363       1.347      0.00445
  14.70361       1.117      0.00444
  14.71360       0.919      0.00442
  14.72359       0.756      0.00439
  14.73358       0.614      0.00438
  14.74357       0.502      0.00438
  14.75355       0.410      0.00438
  14.76354       0.337      0.00436
  14.77353       0.276      0.00438
  14.78352       0.229      0.00439
  14.79351       0.188      0.00438
  14.80350       0.157      0.00439
  14.81348       0.129      0.00440
  14.82347       0.109      0.00442
  14.83346       0.096      0.00442
  14.84345       0.090      0.00444
  14.85344       0.093      0.00446
  14.86342       0.105      0.00446
  14.87341       0.121      0.00448
  14.88340       0.143      0.00451
  14.89339       0.170      0.00452
  14.90338       0.200      0.00455
  14.91337       0.234      0.00457
  14.92335       0.283      0.00460
  14.93334       0.343      0.00462
  14.94333       0.418      0.00466
  14.95332       0.510      0.00469
  14.96331       0.626      0.00472
  14.97329       0.758      0.00478
  14.98328       0.912      0.00483
  14.99327       1.091      0.00487
  15.00326       1.299      0.00493
  15.01325       1.533      0.00501
  15.02324       1.805      0.00506
  15.03322       2.110      0.00515
  15.04321       2.443      0.00524
  15.05320       2.825      0.00533
  15.06319       3.244      0.00542
  15.07318       3.702      0.00554
  15.08316       4.206      0.00567
  15.09315       4.757      0.00577
  15.10314       5.326      0.00590
  15.11313       5.919      0.00604
  15.12312       6.541      0.00616
  15.13311       7.149      0.00630
  15.14309       7.749      0.00644
  15.15308       8.345      0.00655
  15.16307       8.908      0.00668
  15.17306       9.447      0.00681
  15.18305       9.954      0.00690
  15.19303      10.415      0.00701
  15.20302      10.818      0.00711
  15.21301      11.162      0.00720
  15.22300      11.434      0.00725
  15.23299      11.624      0.00734
  15.24298      11.736      0.00738
  15.25296      11.764      0.00740
  15.26295      11.705      0.00744
  15.27294      11.566      0.00744
  15.28293      11.339      0.00742
  15.29292      11.044      0.00741
  15.30290      10.680      0.00739
  15.31289      10.250      0.00733
  15.32288       9.786      0.00729
  15.33287       9.279      0.00724
  15.34286       8.736      0.00715
  15.35285       8.187      0.00709
  15.36283       7.619      0.00703
  15.37282       7.039      0.00692
  15.38281       6.484      0.00686
  15.39280       5.931      0.00678
  15.40279       5.408      0.00669
  15.41277       4.926      0.00663
  15.42276       4.470      0.00657
  15.43275       4.033      0.00649
  15.44274       3.632      0.00644
  15.45273       3.253      0.00639
  15.46272       2.892      0.00632
  15.47270       2.565      0.00628
  15.48269       2.268      0.00624
  15.49268       1.998      0.00621
  15.50267       1.762      0.00618
  15.51266       1.551      0.00616
  15.52264       1.362      0.00613
  15.53263       1.195      0.00613
  15.54262       1.052      0.00613
  15.55261       0.932      0.00612
  15.56260       0.835      0.00612
  15.57259       0.763      0.00614
  15.58257       0.712      0.00616
  15.59256       0.679      0.00619
  15.60255       0.663      0.00621
  15.61254       0.664      0.00626
  15.62253       0.680      0.00628
  15.63251       0.719      0.00633
  15.64250       0.782      0.00639
  15.65249       0.875      0.00646
  15.66248       0.997      0.00652
  15.67247       1.158      0.00660
  15.68246       1.356      0.00670
  15.69244       1.595      0.00682
  15.70243       1.874      0.00693
  15.71242       2.207      0.00707
  15.72241       2.591      0.00721
  15.73240       3.030      0.00739
  15.74239       3.526      0.00757
  15.75237       4.076      0.00777
  15.76236       4.676      0.00797
  15.77235       5.330      0.00819
  15.78234       6.030      0.00844
  15.79233       6.760      0.00868
  15.80231       7.533      0.00894
  15.81230       8.348      0.00921
  15.82229       9.176      0.00946
  15.83228      10.028      0.00975
  15.84227      10.857      0.01002
  15.85226      11.670      0.01028
  15.86224      12.446      0.01055
  15.87223      13.162      0.01079
  15.88222      13.805      0.01102
  15.89221      14.373      0.01125
  15.90220      14.839      0.01145
  15.91218      15.203      0.01162
  15.92217      15.439      0.01178
  15.93216      15.540      0.01191
  15.94215      15.493      0.01199
  15.95214      15.289      0.01206
  15.96213      14.937      0.01208
  15.97211      14.444      0.01208
  15.98210      13.827      0.01204
  15.99209      13.109      0.01195
  16.00208      12.309      0.01189
  16.01207      11.462      0.01180
  16.02205      10.576      0.01166
  16.03204       9.669      0.01152
  16.04203       8.765      0.01138
  16.05202       7.875      0.01124
  16.06201       7.003      0.01108
  16.07200       6.198      0.01096
  16.08198       5.421      0.01079
  16.09197       4.720      0.01069
  16.10196       4.074      0.01059
  16.11195       3.495      0.01050
  16.12194       2.986      0.01043
  16.13192       2.528      0.01039
  16.14191       2.131      0.01037
  16.15190       1.781      0.01036
  16.16189       1.479      0.01037
  16.17188       1.217      0.01041
  16.18187       0.997      0.01047
  16.19185       0.817      0.01053
  16.20184       0.665      0.01065
  16.21183       0.541      0.01075
  16.22182       0.440      0.01090
  16.23181       0.360      0.01105
  16.24179       0.301      0.01121
  16.25178       0.264      0.01142
  16.26177       0.248      0.01163
  16.27176       0.251      0.01189
  16.28175       0.267      0.01216
  16.29174       0.291      0.01247
  16.30172       0.313      0.01277
  16.31171       0.328      0.01313
  16.32170       0.332      0.01346
  16.33169       0.329      0.01385
  16.34168       0.322      0.01423
  16.35166       0.318      0.01472
  16.36165       0.321      0.01524
  16.37164       0.333      0.01581
  16.38163       0.342      0.01645
  16.39162       0.341      0.01706
  16.40161       0.322      0.01771
  16.41159       0.285      0.01814
  16.42158       0.247      0.01871
  16.43157       0.213      0.01916
  16.44156       0.195      0.01975
  16.45155       0.186      0.02033
  16.46153       0.189      0.02101
  16.47152       0.189      0.02179
  16.48151       0.189      0.02271
  16.49150       0.183      0.02363
  16.50149       0.173      0.02477
  16.51148       0.159      0.02601
  16.52146       0.139      0.02753
  16.53145       0.108      0.02918
  16.54144       0.069      0.03142
  16.55143       0.027      0.03418
  16.56142      -0.017      0.03786
  16.57140      -0.061      0.04300
  16.58139      -0.097      0.05137
  16.59138      -0.111      0.06500
  16.60137      -0.078      0.09519
  16.61136      -0.046      0.15020
