3	53598.00
3.0172	52840.00
3.0343	51360.00
3.0515	50868.00
3.0686	49507.00
3.0858	48314.00
3.1029	47380.00
3.12	46846.00
3.1372	45686.00
3.1543	45144.00
3.1715	43879.00
3.1886	43284.00
3.2058	42177.00
3.2229	41021.00
3.2401	40532.00
3.2572	39371.00
3.2744	38707.00
3.2915	38141.00
3.3087	37520.00
3.3258	36767.00
3.343	35933.00
3.3601	35326.00
3.3773	34489.00
3.3944	33434.00
3.4116	32926.00
3.4287	32339.00
3.4459	31411.00
3.463	30879.00
3.4802	29878.00
3.4973	30020.00
3.5145	28932.00
3.5316	27993.00
3.5488	27824.00
3.5659	26651.00
3.5831	26400.00
3.6002	25714.00
3.6174	25294.00
3.6345	24846.00
3.6517	24026.00
3.6688	23543.00
3.686	23117.00
3.7031	22107.00
3.7203	21959.00
3.7374	21397.00
3.7546	20687.00
3.7717	20588.00
3.7889	20001.00
3.806	19442.00
3.8232	19234.00
3.8403	18557.00
3.8575	18209.00
3.8746	17840.00
3.8918	17497.00
3.9089	17350.00
3.9261	16948.00
3.9432	16915.00
3.9604	16645.00
3.9775	16573.00
3.9947	16392.00
4.0118	16023.00
4.029	16142.00
4.0461	15717.00
4.0632	15799.00
4.0804	15522.00
4.0975	15672.00
4.1147	15552.00
4.1318	15733.00
4.149	15479.00
4.1661	15531.00
4.1833	15281.00
4.2004	15380.00
4.2176	15335.00
4.2347	15245.00
4.2519	15072.00
4.269	15127.00
4.2862	15376.00
4.3033	15011.00
4.3205	15228.00
4.3376	14912.00
4.3548	15114.00
4.3719	14890.00
4.3891	15008.00
4.4062	14815.00
4.4234	14933.00
4.4405	14864.00
4.4577	14573.00
4.4748	14504.00
4.492	14587.00
4.5091	14453.00
4.5263	14613.00
4.5434	14393.00
4.5606	14386.00
4.5777	14397.00
4.5949	14384.00
4.612	14216.00
4.6292	14320.00
4.6463	14264.00
4.6635	14151.00
4.6806	14164.00
4.6978	14168.00
4.7149	14182.00
4.7321	13948.00
4.7492	13858.00
4.7664	13891.00
4.7835	14063.00
4.8007	13816.00
4.8178	13729.00
4.835	13782.00
4.8521	13742.00
4.8693	13604.00
4.8864	13583.00
4.9036	13949.00
4.9207	13568.00
4.9379	13417.00
4.955	13159.00
4.9722	13601.00
4.9893	13512.00
5.0064	13485.00
5.0236	13259.00
5.0407	13430.00
5.0579	13211.00
5.075	13106.00
5.0922	13185.00
5.1093	12924.00
5.1265	13334.00
5.1436	13033.00
5.1608	12919.00
5.1779	13089.00
5.1951	12807.00
5.2122	12863.00
5.2294	12846.00
5.2465	12981.00
5.2637	12891.00
5.2808	12789.00
5.298	12763.00
5.3151	12576.00
5.3323	12833.00
5.3494	12691.00
5.3666	12603.00
5.3837	12455.00
5.4009	12554.00
5.418	12568.00
5.4352	12409.00
5.4523	12491.00
5.4695	12462.00
5.4866	12445.00
5.5038	12282.00
5.5209	12394.00
5.5381	12320.00
5.5552	12465.00
5.5724	12180.00
5.5895	12165.00
5.6067	12192.00
5.6238	12070.00
5.641	12157.00
5.6581	12212.00
5.6753	12088.00
5.6924	12115.00
5.7096	12181.00
5.7267	12145.00
5.7439	12119.00
5.761	11847.00
5.7782	11898.00
5.7953	11769.00
5.8125	11754.00
5.8296	11792.00
5.8468	11870.00
5.8639	11685.00
5.8811	11796.00
5.8982	11480.00
5.9154	11673.00
5.9325	11516.00
5.9497	11581.00
5.9668	11729.00
5.9839	11802.00
6.0011	11456.00
6.0182	11329.00
6.0354	11430.00
6.0525	11529.00
6.0697	11369.00
6.0868	11384.00
6.104	11326.00
6.1211	11283.00
6.1383	11090.00
6.1554	11288.00
6.1726	11198.00
6.1897	11283.00
6.2069	11105.00
6.224	11215.00
6.2412	11124.00
6.2583	10898.00
6.2755	11193.00
6.2926	11053.00
6.3098	11145.00
6.3269	10998.00
6.3441	11108.00
6.3612	11061.00
6.3784	11114.00
6.3955	10772.00
6.4127	10946.00
6.4298	11090.00
6.447	10747.00
6.4641	10796.00
6.4813	10624.00
6.4984	10693.00
6.5156	10720.00
6.5327	10796.00
6.5499	10734.00
6.567	10612.00
6.5842	10551.00
6.6013	10716.00
6.6185	10529.00
6.6356	10610.00
6.6528	10424.00
6.6699	10566.00
6.6871	10415.00
6.7042	10468.00
6.7214	10633.00
6.7385	10332.00
6.7557	10193.00
6.7728	10391.00
6.79	10222.00
6.8071	10144.00
6.8243	10302.00
6.8414	10446.00
6.8586	10223.00
6.8757	10155.00
6.8929	10071.00
6.91	10351.00
6.9271	10208.00
6.9443	10301.00
6.9614	10249.00
6.9786	10049.00
6.9957	10238.00
7.0129	9941.00
7.03	9952.00
7.0472	9943.00
7.0643	10051.00
7.0815	10061.00
7.0986	9930.00
7.1158	10019.00
7.1329	9965.00
7.1501	9890.00
7.1672	9878.00
7.1844	9928.00
7.2015	9757.00
7.2187	9715.00
7.2358	9786.00
7.253	9789.00
7.2701	9723.00
7.2873	9671.00
7.3044	9694.00
7.3216	9954.00
7.3387	9623.00
7.3559	9518.00
7.373	9596.00
7.3902	9796.00
7.4073	9684.00
7.4245	9590.00
7.4416	9631.00
7.4588	9668.00
7.4759	9282.00
7.4931	9592.00
7.5102	9435.00
7.5274	9509.00
7.5445	9423.00
7.5617	9445.00
7.5788	9385.00
7.596	9444.00
7.6131	9401.00
7.6303	9360.00
7.6474	9090.00
7.6646	9235.00
7.6817	9229.00
7.6989	9274.00
7.716	9322.00
7.7332	9308.00
7.7503	9338.00
7.7675	9312.00
7.7846	9290.00
7.8018	9288.00
7.8189	9307.00
7.8361	9148.00
7.8532	9176.00
7.8703	9140.00
7.8875	9046.00
7.9046	9081.00
7.9218	8881.00
7.9389	9102.00
7.9561	8999.00
7.9732	8932.00
7.9904	8908.00
8.0075	8985.00
8.0247	9123.00
8.0418	9058.00
8.059	8948.00
8.0761	8878.00
8.0933	8873.00
8.1104	8842.00
8.1276	8849.00
8.1447	8805.00
8.1619	8722.00
8.179	8877.00
8.1962	8921.00
8.2133	8765.00
8.2305	8636.00
8.2476	8884.00
8.2648	8632.00
8.2819	8616.00
8.2991	8733.00
8.3162	8728.00
8.3334	8714.00
8.3505	8653.00
8.3677	8653.00
8.3848	8619.00
8.402	8583.00
8.4191	8714.00
8.4363	8703.00
8.4534	8555.00
8.4706	8574.00
8.4877	8446.00
8.5049	8588.00
8.522	8426.00
8.5392	8515.00
8.5563	8574.00
8.5735	8364.00
8.5906	8680.00
8.6078	8440.00
8.6249	8370.00
8.6421	8392.00
8.6592	8388.00
8.6764	8437.00
8.6935	8345.00
8.7107	8377.00
8.7278	8485.00
8.745	8313.00
8.7621	8164.00
8.7793	8199.00
8.7964	8313.00
8.8135	8395.00
8.8307	8312.00
8.8478	8181.00
8.865	8315.00
8.8821	8116.00
8.8993	8175.00
8.9164	8122.00
8.9336	8236.00
8.9507	8271.00
8.9679	8173.00
8.985	8212.00
9.0022	8161.00
9.0193	8197.00
9.0365	8155.00
9.0536	8243.00
9.0708	8044.00
9.0879	8032.00
9.1051	8117.00
9.1222	8010.00
9.1394	8040.00
9.1565	8023.00
9.1737	7821.00
9.1908	8112.00
9.208	8055.00
9.2251	7894.00
9.2423	7982.00
9.2594	8089.00
9.2766	8022.00
9.2937	7876.00
9.3109	8014.00
9.328	7868.00
9.3452	7738.00
9.3623	7928.00
9.3795	7835.00
9.3966	7982.00
9.4138	7816.00
9.4309	7754.00
9.4481	7762.00
9.4652	7726.00
9.4824	7712.00
9.4995	7747.00
9.5167	7734.00
9.5338	7838.00
9.551	7799.00
9.5681	7846.00
9.5853	7855.00
9.6024	7558.00
9.6196	7818.00
9.6367	7560.00
9.6539	7562.00
9.671	7594.00
9.6882	7758.00
9.7053	7736.00
9.7225	7813.00
9.7396	7702.00
9.7568	7558.00
9.7739	7635.00
9.791	7807.00
9.8082	7744.00
9.8253	7720.00
9.8425	7876.00
9.8596	7898.00
9.8768	7971.00
9.8939	7912.00
9.9111	8163.00
9.9282	8154.00
9.9454	8354.00
9.9625	8563.00
9.9797	8602.00
9.9968	8982.00
10.014	9295.00
10.0311	9712.00
10.0483	9955.00
10.0654	10587.00
10.0826	11446.00
10.0997	12688.00
10.1169	14460.00
10.134	16968.00
10.1512	20268.00
10.1683	26566.00
10.1855	28499.00
10.2026	18062.00
10.2198	10827.00
10.2369	8410.00
10.2541	7603.00
10.2712	7417.00
10.2884	7308.00
10.3055	7275.00
10.3227	7162.00
10.3398	7408.00
10.357	7362.00
10.3741	7271.00
10.3913	7275.00
10.4084	7348.00
10.4256	7135.00
10.4427	7117.00
10.4599	7053.00
10.477	7177.00
10.4942	7269.00
10.5113	7095.00
10.5285	6963.00
10.5456	7207.00
10.5628	7080.00
10.5799	7185.00
10.5971	7228.00
10.6142	7073.00
10.6314	7007.00
10.6485	7027.00
10.6657	6962.00
10.6828	7226.00
10.7	7205.00
10.7171	7132.00
10.7342	6924.00
10.7514	7043.00
10.7685	7071.00
10.7857	7104.00
10.8028	7059.00
10.82	6945.00
10.8371	6849.00
10.8543	6908.00
10.8714	6997.00
10.8886	7061.00
10.9057	6902.00
10.9229	6983.00
10.94	6924.00
10.9572	6939.00
10.9743	6865.00
10.9915	6943.00
11.0086	6978.00
11.0258	6899.00
11.0429	6897.00
11.0601	6735.00
11.0772	6958.00
11.0944	6791.00
11.1115	6925.00
11.1287	6818.00
11.1458	6922.00
11.163	6741.00
11.1801	6975.00
11.1973	6762.00
11.2144	6782.00
11.2316	6762.00
11.2487	6801.00
11.2659	6762.00
11.283	6800.00
11.3002	6619.00
11.3173	6631.00
11.3345	6702.00
11.3516	6691.00
11.3688	6661.00
11.3859	6673.00
11.4031	6583.00
11.4202	6665.00
11.4374	6639.00
11.4545	6757.00
11.4717	6543.00
11.4888	6573.00
11.506	6612.00
11.5231	6650.00
11.5403	6575.00
11.5574	6623.00
11.5746	6709.00
11.5917	6636.00
11.6089	6701.00
11.626	6627.00
11.6432	6659.00
11.6603	6707.00
11.6774	6430.00
11.6946	6647.00
11.7117	6453.00
11.7289	6595.00
11.746	6598.00
11.7632	6618.00
11.7803	6613.00
11.7975	6398.00
11.8146	6571.00
11.8318	6500.00
11.8489	6459.00
11.8661	6366.00
11.8832	6520.00
11.9004	6628.00
11.9175	6565.00
11.9347	6462.00
11.9518	6506.00
11.969	6422.00
11.9861	6438.00
12.0033	6467.00
12.0204	6426.00
12.0376	6371.00
12.0547	6402.00
12.0719	6428.00
12.089	6416.00
12.1062	6369.00
12.1233	6403.00
12.1405	6261.00
12.1576	6378.00
12.1748	6448.00
12.1919	6302.00
12.2091	6212.00
12.2262	6425.00
12.2434	6254.00
12.2605	6309.00
12.2777	6302.00
12.2948	6353.00
12.312	6435.00
12.3291	6378.00
12.3463	6324.00
12.3634	6297.00
12.3806	6162.00
12.3977	6165.00
12.4149	6229.00
12.432	6114.00
12.4492	6401.00
12.4663	6293.00
12.4835	6278.00
12.5006	6389.00
12.5178	6335.00
12.5349	6271.00
12.5521	6171.00
12.5692	6342.00
12.5864	6320.00
12.6035	6103.00
12.6207	6257.00
12.6378	6353.00
12.6549	6178.00
12.6721	6275.00
12.6892	6182.00
12.7064	6007.00
12.7235	6063.00
12.7407	6165.00
12.7578	6066.00
12.775	6328.00
12.7921	6045.00
12.8093	6170.00
12.8264	6258.00
12.8436	6121.00
12.8607	6088.00
12.8779	6328.00
12.895	6073.00
12.9122	6096.00
12.9293	6185.00
12.9465	6057.00
12.9636	6075.00
12.9808	6030.00
12.9979	6166.00
13.0151	6127.00
13.0322	6158.00
13.0494	6041.00
13.0665	6167.00
13.0837	6090.00
13.1008	6076.00
13.118	5995.00
13.1351	6214.00
13.1523	5963.00
13.1694	6090.00
13.1866	6079.00
13.2037	6016.00
13.2209	5919.00
13.238	6060.00
13.2552	5982.00
13.2723	6062.00
13.2895	5945.00
13.3066	6067.00
13.3238	6235.00
13.3409	6097.00
13.3581	6095.00
13.3752	6149.00
13.3924	6020.00
13.4095	6196.00
13.4267	6417.00
13.4438	6393.00
13.461	6666.00
13.4781	6738.00
13.4953	6976.00
13.5124	7291.00
13.5296	7495.00
13.5467	8069.00
13.5639	8752.00
13.581	9809.00
13.5981	10852.00
13.6153	12137.00
13.6324	14506.00
13.6496	18302.00
13.6667	24804.00
13.6839	29200.00
13.701	23880.00
13.7182	13500.00
13.7353	8009.00
13.7525	6418.00
13.7696	6120.00
13.7868	5842.00
13.8039	6097.00
13.8211	5882.00
13.8382	5945.00
13.8554	5729.00
13.8725	5927.00
13.8897	5927.00
13.9068	5849.00
13.924	5886.00
13.9411	5810.00
13.9583	5940.00
13.9754	5776.00
13.9926	5832.00
14.0097	5828.00
14.0269	5744.00
14.044	5774.00
14.0612	5877.00
14.0783	5828.00
14.0955	5727.00
14.1126	5731.00
14.1298	5731.00
14.1469	5822.00
14.1641	5810.00
14.1812	5709.00
14.1984	5941.00
14.2155	5686.00
14.2327	5784.00
14.2498	5794.00
14.267	5826.00
14.2841	5693.00
14.3013	5660.00
14.3184	5759.00
14.3356	5888.00
14.3527	5674.00
14.3699	5816.00
14.387	5672.00
14.4042	5670.00
14.4213	5686.00
14.4385	5788.00
14.4556	5668.00
14.4728	5704.00
14.4899	5610.00
14.5071	5824.00
14.5242	5773.00
14.5413	5826.00
14.5585	5691.00
14.5756	5659.00
14.5928	5807.00
14.6099	5761.00
14.6271	5601.00
14.6442	5642.00
14.6614	5760.00
14.6785	5690.00
14.6957	5803.00
14.7128	5608.00
14.73	5656.00
14.7471	5655.00
14.7643	5612.00
14.7814	5571.00
14.7986	5668.00
14.8157	5758.00
14.8329	5724.00
14.85	5761.00
14.8672	5631.00
14.8843	5477.00
14.9015	5581.00
14.9186	5507.00
14.9358	5619.00
14.9529	5620.00
14.9701	5634.00
14.9872	5602.00
15.0044	5538.00
15.0215	5657.00
15.0387	5714.00
15.0558	5566.00
15.073	5644.00
15.0901	5624.00
15.1073	5647.00
15.1244	5686.00
15.1416	5580.00
15.1587	5650.00
15.1759	5686.00
15.193	5590.00
15.2102	5628.00
15.2273	5609.00
15.2445	5678.00
15.2616	5568.00
15.2788	5571.00
15.2959	5750.00
15.3131	5643.00
15.3302	5657.00
15.3474	5642.00
15.3645	5646.00
15.3817	5568.00
15.3988	5603.00
15.416	5588.00
15.4331	5585.00
15.4503	5626.00
15.4674	5747.00
15.4845	5619.00
15.5017	5539.00
15.5188	5557.00
15.536	5650.00
15.5531	5481.00
15.5703	5651.00
15.5874	5644.00
15.6046	5652.00
15.6217	5607.00
15.6389	5660.00
15.656	5599.00
15.6732	5593.00
15.6903	5615.00
15.7075	5704.00
15.7246	5650.00
15.7418	5741.00
15.7589	5718.00
15.7761	5500.00
15.7932	5680.00
15.8104	5700.00
15.8275	5565.00
15.8447	5545.00
15.8618	5597.00
15.879	5686.00
15.8961	5579.00
15.9133	5622.00
15.9304	5531.00
15.9476	5690.00
15.9647	5663.00
15.9819	5562.00
15.999	5611.00
16.0162	5624.00
16.0333	5781.00
16.0505	5615.00
16.0676	5666.00
16.0848	5837.00
16.1019	5615.00
16.1191	5611.00
16.1362	5548.00
16.1534	5480.00
16.1705	5517.00
16.1877	5599.00
16.2048	5643.00
16.222	5656.00
16.2391	5681.00
16.2563	5780.00
16.2734	5587.00
16.2906	5657.00
16.3077	5689.00
16.3249	5697.00
16.342	5769.00
16.3592	5571.00
16.3763	5660.00
16.3935	5705.00
16.4106	5671.00
16.4278	5644.00
16.4449	5584.00
16.462	5528.00
16.4792	5765.00
16.4963	5783.00
16.5135	5634.00
16.5306	5577.00
16.5478	5647.00
16.5649	5592.00
16.5821	5675.00
16.5992	5570.00
16.6164	5630.00
16.6335	5486.00
16.6507	5818.00
16.6678	5719.00
16.685	5608.00
16.7021	5700.00
16.7193	5718.00
16.7364	5582.00
16.7536	5881.00
16.7707	5661.00
16.7879	5659.00
16.805	5560.00
16.8222	5660.00
16.8393	5764.00
16.8565	5691.00
16.8736	5658.00
16.8908	5702.00
16.9079	5689.00
16.9251	5690.00
16.9422	5673.00
16.9594	5795.00
16.9765	5775.00
16.9937	5703.00
17.0108	5644.00
17.028	5697.00
17.0451	5742.00
17.0623	5804.00
17.0794	5796.00
17.0966	5749.00
17.1137	5707.00
17.1309	5927.00
17.148	5657.00
17.1652	5805.00
17.1823	5739.00
17.1995	5894.00
17.2166	5692.00
17.2338	5832.00
17.2509	5714.00
17.2681	5701.00
17.2852	5773.00
17.3024	5740.00
17.3195	5861.00
17.3367	5755.00
17.3538	5827.00
17.371	5831.00
17.3881	5837.00
17.4052	5636.00
17.4224	5753.00
17.4395	5758.00
17.4567	5792.00
17.4738	5853.00
17.491	5889.00
17.5081	5765.00
17.5253	5782.00
17.5424	5842.00
17.5596	6039.00
17.5767	5823.00
17.5939	5944.00
17.611	5943.00
17.6282	6052.00
17.6453	6118.00
17.6625	6104.00
17.6796	6227.00
17.6968	6500.00
17.7139	6554.00
17.7311	6936.00
17.7482	7367.00
17.7654	8162.00
17.7825	8899.00
17.7997	10089.00
17.8168	11531.00
17.834	14074.00
17.8511	17675.00
17.8683	23827.00
17.8854	29433.00
17.9026	28145.00
17.9197	19853.00
17.9369	11489.00
17.954	7307.00
17.9712	6378.00
17.9883	6106.00
18.0055	5999.00
18.0226	6093.00
18.0398	6052.00
18.0569	5930.00
18.0741	5906.00
18.0912	6112.00
18.1084	6020.00
18.1255	5980.00
18.1427	6026.00
18.1598	5887.00
18.177	5985.00
18.1941	5974.00
18.2113	5997.00
18.2284	6052.00
18.2456	6010.00
18.2627	6044.00
18.2799	6057.00
18.297	6109.00
18.3142	6010.00
18.3313	6063.00
18.3484	5977.00
18.3656	6179.00
18.3827	5996.00
18.3999	6075.00
18.417	6042.00
18.4342	6086.00
18.4513	5995.00
18.4685	6022.00
18.4856	6148.00
18.5028	6143.00
18.5199	6119.00
18.5371	6100.00
18.5542	6088.00
18.5714	6129.00
18.5885	6160.00
18.6057	6168.00
18.6228	6180.00
18.64	6110.00
18.6571	6238.00
18.6743	6121.00
18.6914	6146.00
18.7086	6082.00
18.7257	6284.00
18.7429	6142.00
18.76	6299.00
18.7772	6268.00
18.7943	6259.00
18.8115	6264.00
18.8286	6289.00
18.8458	6312.00
18.8629	6341.00
18.8801	6309.00
18.8972	6252.00
18.9144	6356.00
18.9315	6238.00
18.9487	6137.00
18.9658	6241.00
18.983	6277.00
19.0001	6353.00
19.0173	6306.00
19.0344	6308.00
19.0516	6381.00
19.0687	6301.00
19.0859	6436.00
19.103	6286.00
19.1202	6427.00
19.1373	6436.00
19.1545	6172.00
19.1716	6228.00
19.1888	6345.00
19.2059	6380.00
19.2231	6505.00
19.2402	6299.00
19.2574	6370.00
19.2745	6421.00
19.2917	6469.00
19.3088	6290.00
19.3259	6388.00
19.3431	6472.00
19.3602	6540.00
19.3774	6412.00
19.3945	6496.00
19.4117	6425.00
19.4288	6506.00
19.446	6536.00
19.4631	6356.00
19.4803	6469.00
19.4974	6391.00
19.5146	6607.00
19.5317	6457.00
19.5489	6651.00
19.566	6406.00
19.5832	6476.00
19.6003	6494.00
19.6175	6443.00
19.6346	6639.00
19.6518	6783.00
19.6689	6608.00
19.6861	6624.00
19.7032	6613.00
19.7204	6773.00
19.7375	6834.00
19.7547	7124.00
19.7718	7140.00
19.789	7757.00
19.8061	8018.00
19.8233	8677.00
19.8404	9621.00
19.8576	10726.00
19.8747	12749.00
19.8919	15338.00
19.909	19631.00
19.9262	26356.00
19.9433	36112.00
19.9605	42731.00
19.9776	41715.00
19.9948	32563.00
20.0119	22934.00
20.0291	14555.00
20.0462	9219.00
20.0634	7465.00
20.0805	6880.00
20.0977	6813.00
20.1148	6778.00
20.132	6719.00
20.1491	6944.00
20.1663	6701.00
20.1834	6876.00
20.2006	6800.00
20.2177	6752.00
20.2349	6740.00
20.252	6904.00
20.2691	6896.00
20.2863	7080.00
20.3034	7137.00
20.3206	7566.00
20.3377	7736.00
20.3549	8132.00
20.372	8819.00
20.3892	9425.00
20.4063	10626.00
20.4235	12045.00
20.4406	15259.00
20.4578	20794.00
20.4749	27649.00
20.4921	27636.00
20.5092	19446.00
20.5264	11677.00
20.5435	8015.00
20.5607	7180.00
20.5778	6995.00
20.595	6868.00
20.6121	6757.00
20.6293	6783.00
20.6464	6951.00
20.6636	6789.00
20.6807	6768.00
20.6979	6883.00
20.715	6892.00
20.7322	6922.00
20.7493	6874.00
20.7665	6907.00
20.7836	6915.00
20.8008	6936.00
20.8179	6921.00
20.8351	6984.00
20.8522	6935.00
20.8694	6751.00
20.8865	6811.00
20.9037	6814.00
20.9208	7052.00
20.938	6918.00
20.9551	6888.00
20.9723	6815.00
20.9894	7016.00
21.0066	6872.00
21.0237	6940.00
21.0409	7004.00
21.058	6992.00
21.0752	7165.00
21.0923	6932.00
21.1095	7271.00
21.1266	7363.00
21.1438	7504.00
21.1609	8016.00
21.1781	8694.00
21.1952	9802.00
21.2123	11048.00
21.2295	13574.00
21.2466	16316.00
21.2638	20566.00
21.2809	26454.00
21.2981	35926.00
21.3152	50979.00
21.3324	72664.00
21.3495	106190.00
21.3667	163504.00
21.3838	230907.00
21.401	256250.00
21.4181	212116.00
21.4353	124070.00
21.4524	49466.00
21.4696	17749.00
21.4867	9698.00
21.5039	8139.00
21.521	7539.00
21.5382	7334.00
21.5553	7133.00
21.5725	7238.00
21.5896	7064.00
21.6068	6960.00
21.6239	7091.00
21.6411	6999.00
21.6582	7139.00
21.6754	7123.00
21.6925	7019.00
21.7097	6978.00
21.7268	7268.00
21.744	7113.00
21.7611	7434.00
21.7783	7717.00
21.7954	8322.00
21.8126	8887.00
21.8297	9739.00
21.8469	11654.00
21.864	13414.00
21.8812	17023.00
21.8983	22118.00
21.9155	29305.00
21.9326	40667.00
21.9498	58596.00
21.9669	87257.00
21.9841	133702.00
22.0012	178090.00
22.0184	182910.00
22.0355	144379.00
22.0527	82027.00
22.0698	32722.00
22.087	13099.00
22.1041	8513.00
22.1213	7642.00
22.1384	7289.00
22.1555	7056.00
22.1727	6869.00
22.1898	6877.00
22.207	6680.00
22.2241	6790.00
22.2413	6842.00
22.2584	6777.00
22.2756	6757.00
22.2927	6815.00
22.3099	6688.00
22.327	6713.00
22.3442	6867.00
22.3613	6618.00
22.3785	6679.00
22.3956	6606.00
22.4128	6770.00
22.4299	6754.00
22.4471	6776.00
22.4642	6840.00
22.4814	6684.00
22.4985	6650.00
22.5157	6636.00
22.5328	6631.00
22.55	6518.00
22.5671	6565.00
22.5843	6650.00
22.6014	6446.00
22.6186	6620.00
22.6357	6375.00
22.6529	6577.00
22.67	6637.00
22.6872	6557.00
22.7043	6646.00
22.7215	6411.00
22.7386	6532.00
22.7558	6420.00
22.7729	6696.00
22.7901	6489.00
22.8072	6443.00
22.8244	6556.00
22.8415	6478.00
22.8587	6670.00
22.8758	6634.00
22.893	6696.00
22.9101	6998.00
22.9273	7039.00
22.9444	7279.00
22.9616	7636.00
22.9787	8285.00
22.9959	9368.00
23.013	11036.00
23.0302	13947.00
23.0473	18753.00
23.0645	22834.00
23.0816	24252.00
23.0988	22114.00
23.1159	17294.00
23.133	10941.00
23.1502	7574.00
23.1673	6411.00
23.1845	6327.00
23.2016	6499.00
23.2188	6474.00
23.2359	6297.00
23.2531	6288.00
23.2702	6193.00
23.2874	6220.00
23.3045	6235.00
23.3217	6219.00
23.3388	6277.00
23.356	6106.00
23.3731	6206.00
23.3903	6210.00
23.4074	6245.00
23.4246	6176.00
23.4417	6171.00
23.4589	6166.00
23.476	6319.00
23.4932	6292.00
23.5103	6092.00
23.5275	6207.00
23.5446	6386.00
23.5618	6616.00
23.5789	6914.00
23.5961	6904.00
23.6132	7747.00
23.6304	8706.00
23.6475	9968.00
23.6647	11615.00
23.6818	15080.00
23.699	19785.00
23.7161	27142.00
23.7333	40708.00
23.7504	52743.00
23.7676	54868.00
23.7847	47457.00
23.8019	31545.00
23.819	16191.00
23.8362	8758.00
23.8533	6722.00
23.8705	6158.00
23.8876	6123.00
23.9048	6139.00
23.9219	6142.00
23.9391	5958.00
23.9562	5974.00
23.9734	6056.00
23.9905	6068.00
24.0077	5961.00
24.0248	6147.00
24.042	6194.00
24.0591	6331.00
24.0762	6493.00
24.0934	7140.00
24.1105	7503.00
24.1277	8558.00
24.1448	10402.00
24.162	13077.00
24.1791	15121.00
24.1963	14656.00
24.2134	12041.00
24.2306	8770.00
24.2477	6610.00
24.2649	5899.00
24.282	5800.00
24.2992	5739.00
24.3163	5789.00
24.3335	5677.00
24.3506	5729.00
24.3678	5808.00
24.3849	5609.00
24.4021	5492.00
24.4192	5811.00
24.4364	5510.00
24.4535	5658.00
24.4707	5574.00
24.4878	5590.00
24.505	5695.00
24.5221	5555.00
24.5393	5576.00
24.5564	5573.00
24.5736	5569.00
24.5907	5430.00
24.6079	5580.00
24.625	5431.00
24.6422	5539.00
24.6593	5457.00
24.6765	5462.00
24.6936	5519.00
24.7108	5488.00
24.7279	5528.00
24.7451	5454.00
24.7622	5425.00
24.7794	5399.00
24.7965	5454.00
24.8137	5370.00
24.8308	5405.00
24.848	5433.00
24.8651	5363.00
24.8823	5284.00
24.8994	5351.00
24.9166	5403.00
24.9337	5432.00
24.9509	5334.00
24.968	5430.00
24.9852	5382.00
25.0023	5354.00
25.0194	5322.00
25.0366	5367.00
25.0537	5208.00
25.0709	5394.00
25.088	5391.00
25.1052	5287.00
25.1223	5218.00
25.1395	5324.00
25.1566	5291.00
25.1738	5276.00
25.1909	5266.00
25.2081	5235.00
25.2252	5299.00
25.2424	5287.00
25.2595	5409.00
25.2767	5281.00
25.2938	5275.00
25.311	5288.00
25.3281	5419.00
25.3453	5534.00
25.3624	5591.00
25.3796	5880.00
25.3967	6280.00
25.4139	7044.00
25.431	8338.00
25.4482	9898.00
25.4653	13115.00
25.4825	17323.00
25.4996	23584.00
25.5168	34860.00
25.5339	55329.00
25.5511	88200.00
25.5682	121860.00
25.5854	132716.00
25.6025	111210.00
25.6197	69403.00
25.6368	32633.00
25.654	12805.00
25.6711	7299.00
25.6883	5758.00
25.7054	5564.00
25.7226	5370.00
25.7397	5140.00
25.7569	5235.00
25.774	5114.00
25.7912	5132.00
25.8083	5093.00
25.8255	5158.00
25.8426	5007.00
25.8598	5113.00
25.8769	5285.00
25.8941	5273.00
25.9112	5576.00
25.9284	5802.00
25.9455	6507.00
25.9627	7532.00
25.9798	8948.00
25.9969	11448.00
26.0141	15488.00
26.0312	22222.00
26.0484	33379.00
26.0655	53079.00
26.0827	79249.00
26.0998	95387.00
26.117	89294.00
26.1341	63647.00
26.1513	33992.00
26.1684	14240.00
26.1856	7220.00
26.2027	5671.00
26.2199	5279.00
26.237	5059.00
26.2542	5132.00
26.2713	5116.00
26.2885	5072.00
26.3056	5220.00
26.3228	5348.00
26.3399	5821.00
26.3571	6530.00
26.3742	7353.00
26.3914	9135.00
26.4085	12104.00
26.4257	14302.00
26.4428	14524.00
26.46	12996.00
26.4771	10811.00
26.4943	7314.00
26.5114	5454.00
26.5286	4804.00
26.5457	4795.00
26.5629	4715.00
26.58	4620.00
26.5972	4557.00
26.6143	4521.00
26.6315	4671.00
26.6486	4616.00
26.6658	4633.00
26.6829	4634.00
26.7001	4636.00
26.7172	4759.00
26.7344	4843.00
26.7515	5121.00
26.7687	5356.00
26.7858	6001.00
26.803	6912.00
26.8201	8073.00
26.8373	8770.00
26.8544	8292.00
26.8716	7941.00
26.8887	6855.00
26.9059	5355.00
26.923	4642.00
26.9401	4405.00
26.9573	4453.00
26.9744	4451.00
26.9916	4552.00
27.0087	4390.00
27.0259	4345.00
27.043	4423.00
27.0602	4399.00
27.0773	4427.00
27.0945	4359.00
27.1116	4245.00
27.1288	4344.00
27.1459	4255.00
27.1631	4407.00
27.1802	4379.00
27.1974	4243.00
27.2145	4410.00
27.2317	4302.00
27.2488	4491.00
27.266	4344.00
27.2831	4247.00
27.3003	4252.00
27.3174	4280.00
27.3346	4227.00
27.3517	4139.00
27.3689	4196.00
27.386	4380.00
27.4032	4352.00
27.4203	4492.00
27.4375	4596.00
27.4546	4856.00
27.4718	5047.00
27.4889	5553.00
27.5061	6400.00
27.5232	7888.00
27.5404	10648.00
27.5575	14836.00
27.5747	22009.00
27.5918	31050.00
27.609	36468.00
27.6261	33598.00
27.6433	25669.00
27.6604	15159.00
27.6776	7884.00
27.6947	5153.00
27.7119	4463.00
27.729	4285.00
27.7462	4139.00
27.7633	4176.00
27.7805	4078.00
27.7976	4166.00
27.8148	4194.00
27.8319	4066.00
27.8491	4100.00
27.8662	4118.00
27.8833	4163.00
27.9005	4089.00
27.9176	3996.00
27.9348	4057.00
27.9519	3915.00
27.9691	4074.00
27.9862	4091.00
28.0034	4065.00
28.0205	4107.00
28.0377	4013.00
28.0548	4077.00
28.072	4047.00
28.0891	3936.00
28.1063	4009.00
28.1234	4042.00
28.1406	3888.00
28.1577	3902.00
28.1749	4019.00
28.192	3906.00
28.2092	3966.00
28.2263	3968.00
28.2435	3859.00
28.2606	4016.00
28.2778	3964.00
28.2949	3935.00
28.3121	3935.00
28.3292	3943.00
28.3464	4006.00
28.3635	3860.00
28.3807	3947.00
28.3978	3867.00
28.415	3878.00
28.4321	3870.00
28.4493	3954.00
28.4664	3954.00
28.4836	3868.00
28.5007	3832.00
28.5179	3905.00
28.535	3857.00
28.5522	3828.00
28.5693	3969.00
28.5865	3971.00
28.6036	3981.00
28.6208	4150.00
28.6379	4250.00
28.6551	4484.00
28.6722	4893.00
28.6894	5308.00
28.7065	6523.00
28.7237	8662.00
28.7408	11678.00
28.758	15043.00
28.7751	15680.00
28.7923	13370.00
28.8094	9418.00
28.8265	5953.00
28.8437	4309.00
28.8608	3880.00
28.878	3795.00
28.8951	3842.00
28.9123	3761.00
28.9294	3791.00
28.9466	3804.00
28.9637	3795.00
28.9809	3727.00
28.998	3720.00
29.0152	3759.00
29.0323	3658.00
29.0495	3804.00
29.0666	3706.00
29.0838	3648.00
29.1009	3784.00
29.1181	3733.00
29.1352	3802.00
29.1524	3631.00
29.1695	3716.00
29.1867	3746.00
29.2038	3667.00
29.221	3756.00
29.2381	3671.00
29.2553	3748.00
29.2724	3666.00
29.2896	3668.00
29.3067	3799.00
29.3239	3667.00
29.341	3858.00
29.3582	3607.00
29.3753	3761.00
29.3925	3598.00
29.4096	3631.00
29.4268	3640.00
29.4439	3692.00
29.4611	3627.00
29.4782	3656.00
29.4954	3626.00
29.5125	3630.00
29.5297	3535.00
29.5468	3667.00
29.564	3527.00
29.5811	3672.00
29.5983	3572.00
29.6154	3558.00
29.6326	3714.00
29.6497	3577.00
29.6669	3560.00
29.684	3619.00
29.7012	3568.00
29.7183	3682.00
29.7355	3724.00
29.7526	3779.00
29.7698	4038.00
29.7869	4279.00
29.804	4303.00
29.8212	4760.00
29.8383	5410.00
29.8555	6350.00
29.8726	7600.00
29.8898	9968.00
29.9069	14892.00
29.9241	23475.00
29.9412	34136.00
29.9584	43069.00
29.9755	45988.00
29.9927	38229.00
30.0098	26309.00
30.027	14026.00
30.0441	6686.00
30.0613	4356.00
30.0784	4061.00
30.0956	3726.00
30.1127	3685.00
30.1299	3557.00
30.147	3612.00
30.1642	3598.00
30.1813	3554.00
30.1985	3553.00
30.2156	3443.00
30.2328	3520.00
30.2499	3429.00
30.2671	3527.00
30.2842	3483.00
30.3014	3426.00
30.3185	3650.00
30.3357	3498.00
30.3528	3451.00
30.37	3406.00
30.3871	3440.00
30.4043	3630.00
30.4214	3470.00
30.4386	3510.00
30.4557	3648.00
30.4729	3468.00
30.49	3515.00
30.5072	3579.00
30.5243	3529.00
30.5415	3601.00
30.5586	3492.00
30.5758	3495.00
30.5929	3464.00
30.6101	3512.00
30.6272	3488.00
30.6444	3558.00
30.6615	3510.00
30.6787	3565.00
30.6958	3649.00
30.713	3806.00
30.7301	3717.00
30.7472	3696.00
30.7644	3853.00
30.7815	4170.00
30.7987	4721.00
30.8158	5451.00
30.833	6840.00
30.8501	9344.00
30.8673	13516.00
30.8844	20865.00
30.9016	34328.00
30.9187	57877.00
30.9359	96862.00
30.953	135345.00
30.9702	153965.00
30.9873	146811.00
31.0045	117128.00
31.0216	75555.00
31.0388	39987.00
31.0559	21119.00
31.0731	14665.00
31.0902	12143.00
31.1074	9614.00
31.1245	6699.00
31.1417	4603.00
31.1588	3856.00
31.176	3751.00
31.1931	3719.00
31.2103	3603.00
31.2274	3702.00
31.2446	3715.00
31.2617	3804.00
31.2789	4210.00
31.296	4708.00
31.3132	5500.00
31.3303	6846.00
31.3475	9482.00
31.3646	14068.00
31.3818	20253.00
31.3989	25727.00
31.4161	27047.00
31.4332	24186.00
31.4504	18413.00
31.4675	11821.00
31.4847	6658.00
31.5018	4443.00
31.519	3740.00
31.5361	3497.00
31.5533	3375.00
31.5704	3427.00
31.5876	3414.00
31.6047	3384.00
31.6219	3404.00
31.639	3456.00
31.6562	3348.00
31.6733	3332.00
31.6904	3322.00
31.7076	3373.00
31.7247	3263.00
31.7419	3318.00
31.759	3363.00
31.7762	3311.00
31.7933	3209.00
31.8105	3216.00
31.8276	3315.00
31.8448	3237.00
31.8619	3252.00
31.8791	3254.00
31.8962	3329.00
31.9134	3244.00
31.9305	3341.00
31.9477	3189.00
31.9648	3208.00
31.982	3250.00
31.9991	3259.00
32.0163	3247.00
32.0334	3255.00
32.0506	3211.00
32.0677	3156.00
32.0849	3296.00
32.102	3129.00
32.1192	3150.00
32.1363	3244.00
32.1535	3137.00
32.1706	3220.00
32.1878	3165.00
32.2049	3199.00
32.2221	3207.00
32.2392	3240.00
32.2564	3187.00
32.2735	3228.00
32.2907	3155.00
32.3078	3149.00
32.325	3127.00
32.3421	3224.00
32.3593	3172.00
32.3764	3149.00
32.3936	3085.00
32.4107	3136.00
32.4279	3222.00
32.445	3229.00
32.4622	3155.00
32.4793	3260.00
32.4965	3171.00
32.5136	3214.00
32.5308	3244.00
32.5479	3202.00
32.5651	3417.00
32.5822	3598.00
32.5994	3862.00
32.6165	4407.00
32.6336	5541.00
32.6508	7533.00
32.6679	9670.00
32.6851	10724.00
32.7022	10840.00
32.7194	9872.00
32.7365	8315.00
32.7537	5904.00
32.7708	4159.00
32.788	3455.00
32.8051	3319.00
32.8223	3154.00
32.8394	3202.00
32.8566	3302.00
32.8737	3578.00
32.8909	3787.00
32.908	4167.00
32.9252	5137.00
32.9423	6516.00
32.9595	9440.00
32.9766	13734.00
32.9938	17572.00
33.0109	18984.00
33.0281	17772.00
33.0452	14666.00
33.0624	10097.00
33.0795	6102.00
33.0967	4004.00
33.1138	3478.00
33.131	3263.00
33.1481	3083.00
33.1653	3122.00
33.1824	3150.00
33.1996	2987.00
33.2167	3064.00
33.2339	3097.00
33.251	3079.00
33.2682	3007.00
33.2853	3013.00
33.3025	3003.00
33.3196	3088.00
33.3368	3011.00
33.3539	3149.00
33.3711	3121.00
33.3882	3136.00
33.4054	3121.00
33.4225	3109.00
33.4397	3228.00
33.4568	3397.00
33.474	3532.00
33.4911	3954.00
33.5083	4524.00
33.5254	5706.00
33.5426	7933.00
33.5597	11652.00
33.5769	16032.00
33.594	19149.00
33.6111	20051.00
33.6283	19919.00
33.6454	21500.00
33.6626	25370.00
33.6797	28804.00
33.6969	29338.00
33.714	26916.00
33.7312	22532.00
33.7483	15417.00
33.7655	8447.00
33.7826	4542.00
33.7998	3448.00
33.8169	3268.00
33.8341	3100.00
33.8512	3089.00
33.8684	2994.00
33.8855	3037.00
33.9027	3008.00
33.9198	3044.00
33.937	2988.00
33.9541	3030.00
33.9713	2891.00
33.9884	2934.00
34.0056	2982.00
34.0227	2947.00
34.0399	2916.00
34.057	3019.00
34.0742	2944.00
34.0913	2969.00
34.1085	2930.00
34.1256	2939.00
34.1428	2901.00
34.1599	2912.00
34.1771	2968.00
34.1942	2837.00
34.2114	2930.00
34.2285	2937.00
34.2457	2939.00
34.2628	2865.00
34.28	2903.00
34.2971	2884.00
34.3143	3017.00
34.3314	2952.00
34.3486	2973.00
34.3657	2874.00
34.3829	2875.00
34.4	2906.00
34.4172	2945.00
34.4343	2912.00
34.4515	2917.00
34.4686	2841.00
34.4858	2918.00
34.5029	2943.00
34.5201	2845.00
34.5372	2969.00
34.5543	2938.00
34.5715	3119.00
34.5886	3122.00
34.6058	3440.00
34.6229	3741.00
34.6401	4562.00
34.6572	5965.00
34.6744	8414.00
34.6915	13082.00
34.7087	18653.00
34.7258	21883.00
34.743	22661.00
34.7601	21475.00
34.7773	17767.00
34.7944	12855.00
34.8116	7374.00
34.8287	4498.00
34.8459	3247.00
34.863	3060.00
34.8802	2925.00
34.8973	2815.00
34.9145	2934.00
34.9316	2918.00
34.9488	2919.00
34.9659	2873.00
34.9831	2865.00
35.0002	2943.00
35.0174	3010.00
35.0345	2785.00
35.0517	3013.00
35.0688	2952.00
35.086	3041.00
35.1031	3187.00
35.1203	3201.00
35.1374	3104.00
35.1546	3045.00
35.1717	2848.00
35.1889	2829.00
35.206	2950.00
35.2232	2849.00
35.2403	2840.00
35.2575	2851.00
35.2746	2782.00
35.2918	2810.00
35.3089	2760.00
35.3261	2895.00
35.3432	2784.00
35.3604	2820.00
35.3775	2783.00
35.3947	2802.00
35.4118	2939.00
35.429	2921.00
35.4461	3132.00
35.4633	3173.00
35.4804	3583.00
35.4975	4307.00
35.5147	5533.00
35.5318	7932.00
35.549	12316.00
35.5661	19691.00
35.5833	28990.00
35.6004	35948.00
35.6176	36383.00
35.6347	33399.00
35.6519	26574.00
35.669	17018.00
35.6862	8233.00
35.7033	4397.00
35.7205	3289.00
35.7376	3075.00
35.7548	2914.00
35.7719	2858.00
35.7891	2859.00
35.8062	2794.00
35.8234	2860.00
35.8405	2780.00
35.8577	2801.00
35.8748	2718.00
35.892	2721.00
35.9091	2736.00
35.9263	2787.00
35.9434	2707.00
35.9606	2707.00
35.9777	2836.00
35.9949	2821.00
36.012	2788.00
36.0292	2735.00
36.0463	2748.00
36.0635	2782.00
36.0806	2664.00
36.0978	2818.00
36.1149	2836.00
36.1321	2900.00
36.1492	3166.00
36.1664	3565.00
36.1835	4157.00
36.2007	5360.00
36.2178	7756.00
36.235	11707.00
36.2521	16076.00
36.2693	18940.00
36.2864	19716.00
36.3036	18280.00
36.3207	15563.00
36.3379	11806.00
36.355	7692.00
36.3722	4513.00
36.3893	3258.00
36.4065	2899.00
36.4236	2915.00
36.4408	2864.00
36.4579	2782.00
36.475	2914.00
36.4922	2999.00
36.5093	3330.00
36.5265	3766.00
36.5436	4695.00
36.5608	5943.00
36.5779	7163.00
36.5951	7676.00
36.6122	7412.00
36.6294	6147.00
36.6465	5053.00
36.6637	3817.00
36.6808	3016.00
36.698	2759.00
36.7151	2768.00
36.7323	2608.00
36.7494	2693.00
36.7666	2608.00
36.7837	2606.00
36.8009	2602.00
36.818	2635.00
36.8352	2674.00
36.8523	2594.00
36.8695	2551.00
36.8866	2649.00
36.9038	2577.00
36.9209	2655.00
36.9381	2619.00
36.9552	2614.00
36.9724	2537.00
36.9895	2670.00
37.0067	2547.00
37.0238	2651.00
37.041	2749.00
37.0581	2767.00
37.0753	2912.00
37.0924	3073.00
37.1096	3145.00
37.1267	3125.00
37.1439	3147.00
37.161	3025.00
37.1782	2850.00
37.1953	2723.00
37.2125	2636.00
37.2296	2681.00
37.2468	2610.00
37.2639	2627.00
37.2811	2651.00
37.2982	2714.00
37.3154	2738.00
37.3325	2783.00
37.3497	2952.00
37.3668	3441.00
37.384	4251.00
37.4011	5169.00
37.4182	6172.00
37.4354	6664.00
37.4525	6873.00
37.4697	6750.00
37.4868	6160.00
37.504	5163.00
37.5211	4291.00
37.5383	3629.00
37.5554	3145.00
37.5726	2760.00
37.5897	2652.00
37.6069	2540.00
37.624	2635.00
37.6412	2522.00
37.6583	2586.00
37.6755	2535.00
37.6926	2586.00
37.7098	2558.00
37.7269	2613.00
37.7441	2576.00
37.7612	2667.00
37.7784	2606.00
37.7955	2617.00
37.8127	2668.00
37.8298	2767.00
37.847	3158.00
37.8641	3573.00
37.8813	4406.00
37.8984	6203.00
37.9156	9365.00
37.9327	12971.00
37.9499	14845.00
37.967	14595.00
37.9842	14012.00
38.0013	12420.00
38.0185	9451.00
38.0356	6069.00
38.0528	4105.00
38.0699	4139.00
38.0871	4972.00
38.1042	6672.00
38.1214	9272.00
38.1385	10892.00
38.1557	11308.00
38.1728	11251.00
38.19	10377.00
38.2071	9115.00
38.2243	6825.00
38.2414	4583.00
38.2586	3268.00
38.2757	2767.00
38.2929	2561.00
38.31	2690.00
38.3272	2587.00
38.3443	2414.00
38.3614	2478.00
38.3786	2513.00
38.3957	2600.00
38.4129	2526.00
38.43	2587.00
38.4472	2612.00
38.4643	2676.00
38.4815	2938.00
38.4986	3365.00
38.5158	4063.00
38.5329	5573.00
38.5501	8164.00
38.5672	11002.00
38.5844	13727.00
38.6015	15024.00
38.6187	14666.00
38.6358	12577.00
38.653	9410.00
38.6701	6357.00
38.6873	4055.00
38.7044	2863.00
38.7216	2641.00
38.7387	2524.00
38.7559	2486.00
38.773	2533.00
38.7902	2574.00
38.8073	2452.00
38.8245	2445.00
38.8416	2421.00
38.8588	2387.00
38.8759	2432.00
38.8931	2480.00
38.9102	2463.00
38.9274	2430.00
38.9445	2483.00
38.9617	2449.00
38.9788	2534.00
38.996	2447.00
39.0131	2485.00
39.0303	2458.00
39.0474	2531.00
39.0646	2570.00
39.0817	2767.00
39.0989	2995.00
39.116	3554.00
39.1332	4416.00
39.1503	5398.00
39.1675	6019.00
39.1846	6185.00
39.2018	6015.00
39.2189	5223.00
39.2361	4182.00
39.2532	3287.00
39.2704	2736.00
39.2875	2586.00
39.3046	2583.00
39.3218	2443.00
39.3389	2448.00
39.3561	2449.00
39.3732	2450.00
39.3904	2463.00
39.4075	2414.00
39.4247	2429.00
39.4418	2478.00
39.459	2367.00
39.4761	2335.00
39.4933	2468.00
39.5104	2382.00
39.5276	2390.00
39.5447	2378.00
39.5619	2384.00
39.579	2392.00
39.5962	2396.00
39.6133	2428.00
39.6305	2423.00
39.6476	2394.00
39.6648	2564.00
39.6819	2426.00
39.6991	2447.00
39.7162	2320.00
39.7334	2451.00
39.7505	2449.00
39.7677	2433.00
39.7848	2353.00
39.802	2461.00
39.8191	2446.00
39.8363	2285.00
39.8534	2366.00
39.8706	2422.00
39.8877	2409.00
39.9049	2449.00
39.922	2329.00
39.9392	2339.00
39.9563	2317.00
39.9735	2376.00
39.9906	2392.00
40.0078	2421.00
40.0249	2385.00
40.0421	2384.00
40.0592	2365.00
40.0764	2388.00
40.0935	2399.00
40.1107	2464.00
40.1278	2353.00
40.145	2373.00
40.1621	2425.00
40.1793	2427.00
40.1964	2428.00
40.2136	2473.00
40.2307	2536.00
40.2479	2550.00
40.265	2754.00
40.2821	3046.00
40.2993	3477.00
40.3164	4642.00
40.3336	6320.00
40.3507	9018.00
40.3679	12757.00
40.385	15855.00
40.4022	17728.00
40.4193	17565.00
40.4365	16165.00
40.4536	12850.00
40.4708	8596.00
40.4879	5262.00
40.5051	3896.00
40.5222	3703.00
40.5394	4475.00
40.5565	5876.00
40.5737	7434.00
40.5908	8660.00
40.608	9037.00
40.6251	8644.00
40.6423	7958.00
40.6594	6523.00
40.6766	5160.00
40.6937	4231.00
40.7109	3789.00
40.728	3539.00
40.7452	3061.00
40.7623	2588.00
40.7795	2541.00
40.7966	2425.00
40.8138	2407.00
40.8309	2359.00
40.8481	2360.00
40.8652	2269.00
40.8824	2328.00
40.8995	2358.00
40.9167	2369.00
40.9338	2311.00
40.951	2446.00
40.9681	2407.00
40.9853	2251.00
41.0024	2305.00
41.0196	2395.00
41.0367	2295.00
41.0539	2278.00
41.071	2363.00
41.0882	2338.00
41.1053	2312.00
41.1225	2374.00
41.1396	2365.00
41.1568	2277.00
41.1739	2407.00
41.1911	2338.00
41.2082	2360.00
41.2253	2331.00
41.2425	2288.00
41.2596	2265.00
41.2768	2372.00
41.2939	2345.00
41.3111	2347.00
41.3282	2406.00
41.3454	2296.00
41.3625	2382.00
41.3797	2346.00
41.3968	2302.00
41.414	2402.00
41.4311	2403.00
41.4483	2285.00
41.4654	2256.00
41.4826	2306.00
41.4997	2403.00
41.5169	2312.00
41.534	2298.00
41.5512	2356.00
41.5683	2376.00
41.5855	2362.00
41.6026	2295.00
41.6198	2382.00
41.6369	2287.00
41.6541	2362.00
41.6712	2279.00
41.6884	2337.00
41.7055	2292.00
41.7227	2271.00
41.7398	2348.00
41.757	2395.00
41.7741	2397.00
41.7913	2354.00
41.8084	2322.00
41.8256	2433.00
41.8427	2460.00
41.8599	2739.00
41.877	3030.00
41.8942	3779.00
41.9113	4985.00
41.9285	6773.00
41.9456	8627.00
41.9628	9537.00
41.9799	9657.00
41.9971	9349.00
42.0142	7882.00
42.0314	6161.00
42.0485	4326.00
42.0657	3162.00
42.0828	2551.00
42.1	2430.00
42.1171	2354.00
42.1343	2371.00
42.1514	2262.00
42.1685	2460.00
42.1857	2314.00
42.2028	2296.00
42.22	2328.00
42.2371	2335.00
42.2543	2370.00
42.2714	2332.00
42.2886	2387.00
42.3057	2233.00
42.3229	2315.00
42.34	2228.00
42.3572	2432.00
42.3743	2404.00
42.3915	2456.00
42.4086	2468.00
42.4258	2659.00
42.4429	2961.00
42.4601	3537.00
42.4772	4737.00
42.4944	6106.00
42.5115	7119.00
42.5287	7841.00
42.5458	7687.00
42.563	7182.00
42.5801	6433.00
42.5973	5099.00
42.6144	3757.00
42.6316	3010.00
42.6487	2849.00
42.6659	2757.00
42.683	2927.00
42.7002	3264.00
42.7173	3596.00
42.7345	3906.00
42.7516	4162.00
42.7688	3983.00
42.7859	3930.00
42.8031	3704.00
42.8202	3497.00
42.8374	3171.00
42.8545	2925.00
42.8717	2608.00
42.8888	2524.00
42.906	2584.00
42.9231	2663.00
42.9403	2956.00
42.9574	3446.00
42.9746	4453.00
42.9917	6433.00
43.0089	9472.00
43.026	12977.00
43.0432	15717.00
43.0603	17269.00
43.0775	17213.00
43.0946	15352.00
43.1118	12472.00
43.1289	9133.00
43.146	5773.00
43.1632	3775.00
43.1803	2857.00
43.1975	2615.00
43.2146	2463.00
43.2318	2417.00
43.2489	2471.00
43.2661	2359.00
43.2832	2383.00
43.3004	2390.00
43.3175	2464.00
43.3347	2279.00
43.3518	2431.00
43.369	2221.00
43.3861	2356.00
43.4033	2289.00
43.4204	2362.00
43.4376	2347.00
43.4547	2409.00
43.4719	2378.00
43.489	2311.00
43.5062	2294.00
43.5233	2328.00
43.5405	2329.00
43.5576	2348.00
43.5748	2418.00
43.5919	2447.00
43.6091	2467.00
43.6262	2543.00
43.6434	2563.00
43.6605	2671.00
43.6777	2680.00
43.6948	2731.00
43.712	2659.00
43.7291	2704.00
43.7463	2756.00
43.7634	2727.00
43.7806	2695.00
43.7977	2543.00
43.8149	2506.00
43.832	2542.00
43.8492	2626.00
43.8663	3005.00
43.8835	3548.00
43.9006	4588.00
43.9178	6176.00
43.9349	7683.00
43.9521	8766.00
43.9692	9589.00
43.9864	9922.00
44.0035	10498.00
44.0207	10271.00
44.0378	9484.00
44.055	8119.00
44.0721	7066.00
44.0892	6234.00
44.1064	5241.00
44.1235	4023.00
44.1407	3137.00
44.1578	2671.00
44.175	2498.00
44.1921	2367.00
44.2093	2489.00
44.2264	2654.00
44.2436	2874.00
44.2607	3131.00
44.2779	3617.00
44.295	4532.00
44.3122	5998.00
44.3293	8082.00
44.3465	9979.00
44.3636	11118.00
44.3808	11192.00
44.3979	10764.00
44.4151	10012.00
44.4322	8799.00
44.4494	6690.00
44.4665	4513.00
44.4837	3195.00
44.5008	2708.00
44.518	2510.00
44.5351	2429.00
44.5523	2260.00
44.5694	2330.00
44.5866	2245.00
44.6037	2421.00
44.6209	2325.00
44.638	2395.00
44.6552	2353.00
44.6723	2273.00
44.6895	2278.00
44.7066	2322.00
44.7238	2271.00
44.7409	2318.00
44.7581	2307.00
44.7752	2419.00
44.7924	2495.00
44.8095	2558.00
44.8267	2840.00
44.8438	3630.00
44.861	4664.00
44.8781	6916.00
44.8953	9733.00
44.9124	12310.00
44.9296	14490.00
44.9467	15130.00
44.9639	15008.00
44.981	13556.00
44.9982	11079.00
45.0153	7968.00
45.0324	5229.00
45.0496	3551.00
45.0667	2807.00
45.0839	2499.00
45.101	2398.00
45.1182	2445.00
45.1353	2333.00
45.1525	2294.00
45.1696	2321.00
45.1868	2244.00
45.2039	2330.00
45.2211	2218.00
45.2382	2291.00
45.2554	2343.00
45.2725	2313.00
45.2897	2407.00
45.3068	2300.00
45.324	2479.00
45.3411	2609.00
45.3583	2841.00
45.3754	3221.00
45.3926	3682.00
45.4097	3770.00
45.4269	3789.00
45.444	3716.00
45.4612	3514.00
45.4783	3100.00
45.4955	2774.00
45.5126	2466.00
45.5298	2518.00
45.5469	2432.00
45.5641	2633.00
45.5812	3019.00
45.5984	3631.00
45.6155	4449.00
45.6327	5328.00
45.6498	6210.00
45.667	6808.00
45.6841	7165.00
45.7013	6834.00
45.7184	6333.00
45.7356	5498.00
45.7527	4774.00
45.7699	4011.00
45.787	3448.00
45.8042	2813.00
45.8213	2444.00
45.8385	2303.00
45.8556	2214.00
45.8728	2208.00
45.8899	2236.00
45.9071	2291.00
45.9242	2242.00
45.9414	2150.00
45.9585	2179.00
45.9756	2169.00
45.9928	2209.00
46.0099	2164.00
46.0271	2283.00
46.0442	2209.00
46.0614	2187.00
46.0785	2199.00
46.0957	2237.00
46.1128	2181.00
46.13	2183.00
46.1471	2178.00
46.1643	2187.00
46.1814	2188.00
46.1986	2205.00
46.2157	2232.00
46.2329	2155.00
46.25	2282.00
46.2672	2128.00
46.2843	2111.00
46.3015	2261.00
46.3186	2258.00
46.3358	2087.00
46.3529	2299.00
46.3701	2163.00
46.3872	2206.00
46.4044	2393.00
46.4215	2609.00
46.4387	2935.00
46.4558	3627.00
46.473	4482.00
46.4901	5369.00
46.5073	6163.00
46.5244	6484.00
46.5416	6534.00
46.5587	6238.00
46.5759	5873.00
46.593	4821.00
46.6102	3983.00
46.6273	2993.00
46.6445	2614.00
46.6616	2317.00
46.6788	2339.00
46.6959	2296.00
46.7131	2224.00
46.7302	2197.00
46.7474	2226.00
46.7645	2123.00
46.7817	2274.00
46.7988	2174.00
46.816	2205.00
46.8331	2196.00
46.8503	2238.00
46.8674	2244.00
46.8846	2186.00
46.9017	2179.00
46.9189	2131.00
46.936	2195.00
46.9531	2209.00
46.9703	2215.00
46.9874	2216.00
47.0046	2204.00
47.0217	2202.00
47.0389	2242.00
47.056	2375.00
47.0732	2527.00
47.0903	2857.00
47.1075	3472.00
47.1246	3975.00
47.1418	4593.00
47.1589	5460.00
47.1761	5913.00
47.1932	5957.00
47.2104	5893.00
47.2275	5373.00
47.2447	5167.00
47.2618	4637.00
47.279	4430.00
47.2961	3799.00
47.3133	3253.00
47.3304	3076.00
47.3476	2954.00
47.3647	2969.00
47.3819	2891.00
47.399	2873.00
47.4162	2688.00
47.4333	2444.00
47.4505	2285.00
47.4676	2249.00
47.4848	2102.00
47.5019	2146.00
47.5191	2108.00
47.5362	2233.00
47.5534	2144.00
47.5705	2225.00
47.5877	2134.00
47.6048	2087.00
47.622	2243.00
47.6391	2193.00
47.6563	2158.00
47.6734	2186.00
47.6906	2216.00
47.7077	2300.00
47.7249	2507.00
47.742	2598.00
47.7592	3252.00
47.7763	4248.00
47.7935	5626.00
47.8106	7125.00
47.8278	7909.00
47.8449	8480.00
47.8621	8231.00
47.8792	7750.00
47.8963	6755.00
47.9135	5515.00
47.9306	4052.00
47.9478	3009.00
47.9649	2476.00
47.9821	2324.00
47.9992	2267.00
48.0164	2141.00
48.0335	2076.00
48.0507	2195.00
48.0678	2173.00
48.085	2033.00
48.1021	2161.00
48.1193	2158.00
48.1364	2216.00
48.1536	2175.00
48.1707	2105.00
48.1879	2084.00
48.205	2128.00
48.2222	2106.00
48.2393	2124.00
48.2565	2091.00
48.2736	2157.00
48.2908	2127.00
48.3079	2086.00
48.3251	2298.00
48.3422	2415.00
48.3594	2452.00
48.3765	2875.00
48.3937	3568.00
48.4108	4487.00
48.428	5266.00
48.4451	5919.00
48.4623	6003.00
48.4794	6070.00
48.4966	5679.00
48.5137	5044.00
48.5309	4076.00
48.548	3274.00
48.5652	2760.00
48.5823	2403.00
48.5995	2652.00
48.6166	3110.00
48.6338	3424.00
48.6509	3793.00
48.6681	3826.00
48.6852	4070.00
48.7024	4031.00
48.7195	3788.00
48.7367	3428.00
48.7538	3272.00
48.771	2711.00
48.7881	2392.00
48.8053	2232.00
48.8224	2141.00
48.8395	2098.00
48.8567	2172.00
48.8738	2137.00
48.891	2160.00
48.9081	2167.00
48.9253	2189.00
48.9424	2122.00
48.9596	2335.00
48.9767	2355.00
48.9939	2668.00
49.011	3168.00
49.0282	4009.00
49.0453	5735.00
49.0625	7189.00
49.0796	8158.00
49.0968	8460.00
49.1139	8624.00
49.1311	8432.00
49.1482	8089.00
49.1654	7212.00
49.1825	5869.00
49.1997	4235.00
49.2168	3009.00
49.234	2444.00
49.2511	2321.00
49.2683	2243.00
49.2854	2054.00
49.3026	2131.00
49.3197	2112.00
49.3369	2066.00
49.354	2071.00
49.3712	2041.00
49.3883	2047.00
49.4055	1985.00
49.4226	2005.00
49.4398	2104.00
49.4569	2029.00
49.4741	2101.00
49.4912	2013.00
49.5084	2147.00
49.5255	2189.00
49.5427	2290.00
49.5598	2376.00
49.577	2354.00
49.5941	2478.00
49.6113	2383.00
49.6284	2456.00
49.6456	2260.00
49.6627	2149.00
49.6799	2103.00
49.697	2082.00
49.7142	1960.00
49.7313	2095.00
49.7485	2068.00
49.7656	2025.00
49.7828	2016.00
49.7999	1985.00
49.817	2033.00
49.8342	2041.00
49.8513	1988.00
49.8685	2098.00
49.8856	1951.00
49.9028	2102.00
49.9199	2072.00
49.9371	2014.00
49.9542	2079.00
49.9714	1951.00
49.9885	2016.00
50.0057	2006.00
50.0228	2094.00
50.04	1977.00
50.0571	2023.00
50.0743	2050.00
50.0914	2003.00
50.1086	2024.00
50.1257	1952.00
50.1429	1954.00
50.16	2010.00
50.1772	2017.00
50.1943	1986.00
50.2115	2071.00
50.2286	2047.00
50.2458	2065.00
50.2629	2005.00
50.2801	1969.00
50.2972	2054.00
50.3144	1971.00
50.3315	1986.00
50.3487	2026.00
50.3658	2074.00
50.383	1983.00
50.4001	2034.00
50.4173	2108.00
50.4344	2112.00
50.4516	2179.00
50.4687	2201.00
50.4859	2305.00
50.503	2416.00
50.5202	2542.00
50.5373	2554.00
50.5545	2572.00
50.5716	2596.00
50.5888	2582.00
50.6059	2551.00
50.6231	2437.00
50.6402	2317.00
50.6574	2200.00
50.6745	2172.00
50.6917	2113.00
50.7088	2122.00
50.726	2020.00
50.7431	1993.00
50.7602	2088.00
50.7774	1993.00
50.7945	2013.00
50.8117	1908.00
50.8288	2001.00
50.846	1989.00
50.8631	2017.00
50.8803	1941.00
50.8974	1924.00
50.9146	1909.00
50.9317	1971.00
50.9489	2076.00
50.966	2026.00
50.9832	1938.00
51.0003	1914.00
51.0175	1950.00
51.0346	2041.00
51.0518	1994.00
51.0689	1937.00
51.0861	1946.00
51.1032	1997.00
51.1204	1994.00
51.1375	2001.00
51.1547	1987.00
51.1718	2087.00
51.189	1967.00
51.2061	2034.00
51.2233	1973.00
51.2404	2132.00
51.2576	2165.00
51.2747	2156.00
51.2919	2207.00
51.309	2388.00
51.3262	2436.00
51.3433	2446.00
51.3605	2367.00
51.3776	2371.00
51.3948	2400.00
51.4119	2332.00
51.4291	2243.00
51.4462	2072.00
51.4634	2085.00
51.4805	2048.00
51.4977	2008.00
51.5148	2000.00
51.532	2001.00
51.5491	2035.00
51.5663	1915.00
51.5834	1959.00
51.6006	1959.00
51.6177	1991.00
51.6349	2021.00
51.652	1946.00
51.6692	1889.00
51.6863	1952.00
51.7034	1876.00
51.7206	1978.00
51.7377	1964.00
51.7549	2011.00
51.772	2008.00
51.7892	1938.00
51.8063	1943.00
51.8235	2010.00
51.8406	1982.00
51.8578	1992.00
51.8749	1964.00
51.8921	1986.00
51.9092	2005.00
51.9264	1981.00
51.9435	2006.00
51.9607	1907.00
51.9778	1985.00
51.995	1978.00
52.0121	1991.00
52.0293	1960.00
52.0464	2069.00
52.0636	1913.00
52.0807	2052.00
52.0979	1987.00
52.115	1963.00
52.1322	2036.00
52.1493	2027.00
52.1665	2048.00
52.1836	2077.00
52.2008	1998.00
52.2179	1985.00
52.2351	1987.00
52.2522	2024.00
52.2694	2034.00
52.2865	2121.00
52.3037	2136.00
52.3208	2231.00
52.338	2513.00
52.3551	2934.00
52.3723	3501.00
52.3894	3988.00
52.4066	3957.00
52.4237	4123.00
52.4409	3952.00
52.458	3742.00
52.4752	3299.00
52.4923	2849.00
52.5095	2445.00
52.5266	2134.00
52.5438	2180.00
52.5609	2022.00
52.5781	2074.00
52.5952	2083.00
52.6124	2079.00
52.6295	2034.00
52.6466	2136.00
52.6638	2136.00
52.6809	2026.00
52.6981	2110.00
52.7152	2052.00
52.7324	2035.00
52.7495	2024.00
52.7667	2192.00
52.7838	2385.00
52.801	2751.00
52.8181	3368.00
52.8353	4063.00
52.8524	5255.00
52.8696	6204.00
52.8867	6500.00
52.9039	6602.00
52.921	6366.00
52.9382	6042.00
52.9553	5443.00
52.9725	4852.00
52.9896	4608.00
53.0068	4598.00
53.0239	4870.00
53.0411	5301.00
53.0582	5777.00
53.0754	5748.00
53.0925	5648.00
53.1097	5511.00
53.1268	4986.00
53.144	4298.00
53.1611	3622.00
53.1783	2819.00
53.1954	2539.00
53.2126	2339.00
53.2297	2400.00
53.2469	2646.00
53.264	3143.00
53.2812	4120.00
53.2983	5219.00
53.3155	6258.00
53.3326	7069.00
53.3498	7640.00
53.3669	7915.00
53.3841	7763.00
53.4012	7451.00
53.4184	6904.00
53.4355	6168.00
53.4527	5199.00
53.4698	4261.00
53.487	3738.00
53.5041	3503.00
53.5213	3315.00
53.5384	3188.00
53.5556	3043.00
53.5727	2738.00
53.5899	2537.00
53.607	2345.00
53.6241	2317.00
53.6413	2508.00
53.6584	2846.00
53.6756	3510.00
53.6927	4288.00
53.7099	5179.00
53.727	5970.00
53.7442	6628.00
53.7613	6716.00
53.7785	6532.00
53.7956	5953.00
53.8128	5127.00
53.8299	4170.00
53.8471	3340.00
53.8642	2625.00
53.8814	2304.00
53.8985	2152.00
53.9157	2108.00
53.9328	1992.00
53.95	2063.00
53.9671	2077.00
53.9843	2059.00
54.0014	1993.00
54.0186	2052.00
54.0357	1989.00
54.0529	1954.00
54.07	2033.00
54.0872	2119.00
54.1043	2207.00
54.1215	2389.00
54.1386	2675.00
54.1558	2992.00
54.1729	3228.00
54.1901	3492.00
54.2072	3471.00
54.2244	3580.00
54.2415	3510.00
54.2587	3322.00
54.2758	3053.00
54.293	2720.00
54.3101	2561.00
54.3273	2517.00
54.3444	2406.00
54.3616	2455.00
54.3787	2653.00
54.3959	2930.00
54.413	3611.00
54.4302	4325.00
54.4473	5009.00
54.4645	5284.00
54.4816	5313.00
54.4988	5377.00
54.5159	5247.00
54.5331	5112.00
54.5502	4649.00
54.5673	4128.00
54.5845	3213.00
54.6016	2641.00
54.6188	2390.00
54.6359	2249.00
54.6531	2119.00
54.6702	2037.00
54.6874	2061.00
54.7045	2053.00
54.7217	2006.00
54.7388	1989.00
54.756	2021.00
54.7731	1961.00
54.7903	1986.00
54.8074	1994.00
54.8246	1998.00
54.8417	1982.00
54.8589	1988.00
54.876	1986.00
54.8932	1918.00
54.9103	2001.00
54.9275	2070.00
54.9446	2065.00
54.9618	2029.00
54.9789	2066.00
54.9961	1989.00
55.0132	2044.00
55.0304	2175.00
55.0475	2319.00
55.0647	2704.00
55.0818	3237.00
55.099	3775.00
55.1161	4587.00
55.1333	5554.00
55.1504	6389.00
55.1676	6938.00
55.1847	7195.00
55.2019	7044.00
55.219	6501.00
55.2362	6058.00
55.2533	5280.00
55.2705	4878.00
55.2876	4553.00
55.3048	4026.00
55.3219	3651.00
55.3391	3280.00
55.3562	3184.00
55.3734	3072.00
55.3905	3021.00
55.4077	3104.00
55.4248	2963.00
55.442	2794.00
55.4591	2635.00
55.4763	2476.00
55.4934	2341.00
55.5105	2244.00
55.5277	2443.00
55.5448	2499.00
55.562	2640.00
55.5791	2716.00
55.5963	2730.00
55.6134	3135.00
55.6306	3658.00
55.6477	4232.00
55.6649	4968.00
55.682	5728.00
55.6992	6450.00
55.7163	7190.00
55.7335	7743.00
55.7506	8130.00
55.7678	7940.00
55.7849	7408.00
55.8021	6823.00
55.8192	5848.00
55.8364	4912.00
55.8535	3838.00
55.8707	3105.00
55.8878	2737.00
55.905	2629.00
55.9221	3042.00
55.9393	3617.00
55.9564	4496.00
55.9736	5588.00
55.9907	6774.00
56.0079	7488.00
56.025	7941.00
56.0422	7898.00
56.0593	7674.00
56.0765	7053.00
56.0936	6029.00
56.1108	5054.00
56.1279	4144.00
56.1451	3280.00
56.1622	2671.00
56.1794	2277.00
56.1965	2146.00
56.2137	2056.00
56.2308	1948.00
56.248	1921.00
56.2651	1968.00
56.2823	1888.00
56.2994	1888.00
56.3166	1957.00
56.3337	1965.00
56.3509	1953.00
56.368	1952.00
56.3852	1988.00
56.4023	1984.00
56.4195	1913.00
56.4366	2005.00
56.4537	1938.00
56.4709	1965.00
56.488	1927.00
56.5052	1905.00
56.5223	1957.00
56.5395	1924.00
56.5566	1879.00
56.5738	1971.00
56.5909	2003.00
56.6081	1956.00
56.6252	1898.00
56.6424	1969.00
56.6595	1888.00
56.6767	1905.00
56.6938	1902.00
56.711	2002.00
56.7281	1925.00
56.7453	1935.00
56.7624	1997.00
56.7796	2227.00
56.7967	2435.00
56.8139	2484.00
56.831	2637.00
56.8482	2780.00
56.8653	2816.00
56.8825	2776.00
56.8996	2733.00
56.9168	2659.00
56.9339	2433.00
56.9511	2229.00
56.9682	2188.00
56.9854	2154.00
57.0025	2110.00
57.0197	2169.00
57.0368	2206.00
57.054	2205.00
57.0711	2215.00
57.0883	2291.00
57.1054	2266.00
57.1226	2170.00
57.1397	2225.00
57.1569	2144.00
57.174	1992.00
57.1912	2073.00
57.2083	1941.00
57.2255	1993.00
57.2426	1864.00
57.2598	1994.00
57.2769	1961.00
57.2941	2036.00
57.3112	2065.00
57.3284	2249.00
57.3455	2210.00
57.3627	2330.00
57.3798	2398.00
57.397	2288.00
57.4141	2396.00
57.4312	2440.00
57.4484	2481.00
57.4655	2619.00
57.4827	2637.00
57.4998	2991.00
57.517	3454.00
57.5341	3941.00
57.5513	4605.00
57.5684	5112.00
57.5856	5362.00
57.6027	5630.00
57.6199	5692.00
57.637	5500.00
57.6542	5384.00
57.6713	5039.00
57.6885	4726.00
57.7056	4164.00
57.7228	3690.00
57.7399	3180.00
57.7571	2696.00
57.7742	2469.00
57.7914	2222.00
57.8085	2045.00
57.8257	1942.00
57.8428	1919.00
57.86	1948.00
57.8771	1899.00
57.8943	1980.00
57.9114	1913.00
57.9286	1999.00
57.9457	2106.00
57.9629	2334.00
57.98	2442.00
57.9972	2515.00
58.0143	2664.00
58.0315	2575.00
58.0486	2716.00
58.0658	2776.00
58.0829	2800.00
58.1001	2945.00
58.1172	3171.00
58.1344	3477.00
58.1515	3868.00
58.1687	4247.00
58.1858	4642.00
58.203	5012.00
58.2201	5027.00
58.2373	4899.00
58.2544	4750.00
58.2716	4091.00
58.2887	3453.00
58.3059	2921.00
58.323	2544.00
58.3402	2267.00
58.3573	2156.00
58.3744	2034.00
58.3916	1970.00
58.4087	2043.00
58.4259	1949.00
58.443	1939.00
58.4602	1927.00
58.4773	2008.00
58.4945	1870.00
58.5116	1923.00
58.5288	1883.00
58.5459	1921.00
58.5631	1845.00
58.5802	1898.00
58.5974	1799.00
58.6145	1889.00
58.6317	1908.00
58.6488	1885.00
58.666	1970.00
58.6831	1920.00
58.7003	1897.00
58.7174	1864.00
58.7346	1962.00
58.7517	1910.00
58.7689	1833.00
58.786	1828.00
58.8032	1812.00
58.8203	1914.00
58.8375	1895.00
58.8546	1903.00
58.8718	1777.00
58.8889	1875.00
58.9061	1961.00
58.9232	1931.00
58.9404	1944.00
58.9575	1972.00
58.9747	1881.00
58.9918	1839.00
59.009	1885.00
59.0261	1881.00
59.0433	1937.00
59.0604	1901.00
59.0776	1936.00
59.0947	1892.00
59.1119	1958.00
59.129	2009.00
59.1462	1861.00
59.1633	2101.00
59.1805	2206.00
59.1976	2408.00
59.2148	2629.00
59.2319	2783.00
59.2491	2849.00
59.2662	2786.00
59.2834	2915.00
59.3005	2907.00
59.3176	2862.00
59.3348	2807.00
59.3519	2596.00
59.3691	2433.00
59.3862	2344.00
59.4034	2262.00
59.4205	2220.00
59.4377	2144.00
59.4548	2321.00
59.472	2308.00
59.4891	2295.00
59.5063	2237.00
59.5234	2290.00
59.5406	2122.00
59.5577	2100.00
59.5749	1956.00
59.592	2040.00
59.6092	1902.00
59.6263	1883.00
59.6435	1851.00
59.6606	1863.00
59.6778	1876.00
59.6949	1882.00
59.7121	1935.00
59.7292	1911.00
59.7464	1929.00
59.7635	1951.00
59.7807	2049.00
59.7978	2344.00
59.815	2481.00
59.8321	2742.00
59.8493	3191.00
59.8664	3530.00
59.8836	3838.00
59.9007	4281.00
59.9179	4555.00
59.935	4755.00
59.9522	4905.00
59.9693	4811.00
59.9865	4685.00
60.0036	4573.00
60.0208	4350.00
60.0379	4210.00
60.0551	3873.00
60.0722	3595.00
60.0894	3192.00
60.1065	3107.00
60.1237	2870.00
60.1408	2561.00
60.158	2334.00
60.1751	2256.00
60.1923	2088.00
60.2094	1934.00
60.2266	1992.00
60.2437	2053.00
60.2609	1942.00
60.278	1922.00
60.2951	1869.00
60.3123	1938.00
60.3294	1863.00
60.3466	1883.00
60.3637	1893.00
60.3809	1953.00
60.398	1925.00
60.4152	1925.00
60.4323	1868.00
60.4495	1895.00
60.4666	1938.00
60.4838	1885.00
60.5009	1958.00
60.5181	1861.00
60.5352	1914.00
60.5524	1888.00
60.5695	1965.00
60.5867	1804.00
60.6038	1884.00
60.621	1927.00
60.6381	1937.00
60.6553	1921.00
60.6724	1889.00
60.6896	1839.00
60.7067	1927.00
60.7239	1946.00
60.741	1943.00
60.7582	1812.00
60.7753	1853.00
60.7925	1861.00
60.8096	1836.00
60.8268	1885.00
60.8439	1990.00
60.8611	1970.00
60.8782	2144.00
60.8954	2310.00
60.9125	2590.00
60.9297	2961.00
60.9468	3326.00
60.964	3631.00
60.9811	3774.00
60.9983	3921.00
61.0154	3877.00
61.0326	3884.00
61.0497	3900.00
61.0669	3712.00
61.084	3166.00
61.1012	2870.00
61.1183	2507.00
61.1355	2250.00
61.1526	2161.00
61.1698	2031.00
61.1869	1954.00
61.2041	2004.00
61.2212	1977.00
61.2383	2033.00
61.2555	1990.00
61.2726	2077.00
61.2898	2002.00
61.3069	1961.00
61.3241	2008.00
61.3412	1941.00
61.3584	1971.00
61.3755	1909.00
61.3927	1917.00
61.4098	1899.00
61.427	1934.00
61.4441	1919.00
61.4613	1987.00
61.4784	2211.00
61.4956	2417.00
61.5127	2456.00
61.5299	2824.00
61.547	2993.00
61.5642	2866.00
61.5813	2911.00
61.5985	3022.00
61.6156	2895.00
61.6328	2888.00
61.6499	2649.00
61.6671	2438.00
61.6842	2198.00
61.7014	2086.00
61.7185	2034.00
61.7357	1969.00
61.7528	1946.00
61.77	1900.00
61.7871	1969.00
61.8043	1897.00
61.8214	1933.00
61.8386	1882.00
61.8557	1914.00
61.8729	2041.00
61.89	2180.00
61.9072	2201.00
61.9243	2444.00
61.9415	2533.00
61.9586	2641.00
61.9758	2578.00
61.9929	2549.00
62.0101	2576.00
62.0272	2532.00
62.0444	2442.00
62.0615	2412.00
62.0787	2146.00
62.0958	2127.00
62.113	2090.00
62.1301	1951.00
62.1473	1946.00
62.1644	2027.00
62.1815	2171.00
62.1987	2370.00
62.2158	2590.00
62.233	2809.00
62.2501	3075.00
62.2673	3125.00
62.2844	3404.00
62.3016	3427.00
62.3187	3260.00
62.3359	3183.00
62.353	3215.00
62.3702	2998.00
62.3873	2723.00
62.4045	2386.00
62.4216	2270.00
62.4388	2080.00
62.4559	2112.00
62.4731	2035.00
62.4902	2195.00
62.5074	2412.00
62.5245	2346.00
62.5417	2407.00
62.5588	2460.00
62.576	2328.00
62.5931	2362.00
62.6103	2410.00
62.6274	2383.00
62.6446	2468.00
62.6617	2548.00
62.6789	2828.00
62.696	3027.00
62.7132	3209.00
62.7303	3253.00
62.7475	3385.00
62.7646	3600.00
62.7818	3430.00
62.7989	3468.00
62.8161	3151.00
62.8332	2985.00
62.8504	2736.00
62.8675	2441.00
62.8847	2246.00
62.9018	2252.00
62.919	2118.00
62.9361	2065.00
62.9533	2127.00
62.9704	1941.00
62.9876	1968.00
63.0047	1904.00
63.0219	1929.00
63.039	1901.00
63.0562	1831.00
63.0733	1941.00
63.0905	2033.00
63.1076	1932.00
63.1247	2101.00
63.1419	2094.00
63.159	2227.00
63.1762	2228.00
63.1933	2206.00
63.2105	2214.00
63.2276	2138.00
63.2448	2042.00
63.2619	2048.00
63.2791	1943.00
63.2962	1869.00
63.3134	1830.00
63.3305	1904.00
63.3477	1788.00
63.3648	1933.00
63.382	1860.00
63.3991	1821.00
63.4163	1863.00
63.4334	1835.00
63.4506	1917.00
63.4677	1846.00
63.4849	1848.00
63.502	1864.00
63.5192	1865.00
63.5363	1884.00
63.5535	1862.00
63.5706	1881.00
63.5878	1865.00
63.6049	1863.00
63.6221	1818.00
63.6392	1879.00
63.6564	1875.00
63.6735	1909.00
63.6907	1863.00
63.7078	1893.00
63.725	1883.00
63.7421	1893.00
63.7593	1972.00
63.7764	1900.00
63.7936	1851.00
63.8107	1843.00
63.8279	1855.00
63.845	1863.00
63.8622	1944.00
63.8793	1889.00
63.8965	1820.00
63.9136	1887.00
63.9308	1913.00
63.9479	1987.00
63.9651	2023.00
63.9822	2056.00
63.9994	2206.00
64.0165	2261.00
64.0337	2457.00
64.0508	2424.00
64.068	2529.00
64.0851	2542.00
64.1022	2547.00
64.1194	2492.00
64.1365	2482.00
64.1537	2271.00
64.1708	2289.00
64.188	2126.00
64.2051	1981.00
64.2223	1915.00
64.2394	1843.00
64.2566	1775.00
64.2737	1833.00
64.2909	1924.00
64.308	1868.00
64.3252	1924.00
64.3423	1993.00
64.3595	2018.00
64.3766	2099.00
64.3938	2107.00
64.4109	2212.00
64.4281	2156.00
64.4452	2243.00
64.4624	2168.00
64.4795	2142.00
64.4967	2254.00
64.5138	2333.00
64.531	2361.00
64.5481	2404.00
64.5653	2471.00
64.5824	2511.00
64.5996	2516.00
64.6167	2503.00
64.6339	2612.00
64.651	2518.00
64.6682	2482.00
64.6853	2411.00
64.7025	2224.00
64.7196	2171.00
64.7368	2170.00
64.7539	2132.00
64.7711	2271.00
64.7882	2449.00
64.8054	2433.00
64.8225	2764.00
64.8397	2788.00
64.8568	2860.00
64.874	2837.00
64.8911	2851.00
64.9083	2850.00
64.9254	2688.00
64.9426	2680.00
64.9597	2573.00
64.9769	2449.00
64.994	2439.00
65.0112	2445.00
65.0283	2445.00
65.0454	2504.00
65.0626	2470.00
65.0797	2515.00
65.0969	2808.00
65.114	3119.00
65.1312	3264.00
65.1483	3334.00
65.1655	3336.00
65.1826	3569.00
65.1998	3383.00
65.2169	3505.00
65.2341	3347.00
65.2512	3265.00
65.2684	2909.00
65.2855	2598.00
65.3027	2269.00
65.3198	2072.00
65.337	1974.00
65.3541	1907.00
65.3713	1920.00
65.3884	1879.00
65.4056	1938.00
65.4227	1896.00
65.4399	1944.00
65.457	1881.00
65.4742	2049.00
65.4913	2259.00
65.5085	2587.00
65.5256	2927.00
65.5428	3280.00
65.5599	3536.00
65.5771	3778.00
65.5942	3898.00
65.6114	3813.00
65.6285	3848.00
65.6457	3700.00
65.6628	3529.00
65.68	3208.00
65.6971	2821.00
65.7143	2461.00
65.7314	2184.00
65.7486	2088.00
65.7657	2016.00
65.7829	1892.00
65.8	1879.00
65.8172	1920.00
65.8343	1924.00
65.8515	1896.00
65.8686	1890.00
65.8858	1835.00
65.9029	1930.00
65.9201	1915.00
65.9372	1859.00
65.9544	1879.00
65.9715	1880.00
65.9886	1920.00
66.0058	1982.00
66.0229	2133.00
66.0401	2198.00
66.0572	2569.00
66.0744	2929.00
66.0915	3468.00
66.1087	4023.00
66.1258	4556.00
66.143	4819.00
66.1601	4760.00
66.1773	4238.00
66.1944	3860.00
66.2116	3382.00
66.2287	3184.00
66.2459	3016.00
66.263	3227.00
66.2802	3197.00
66.2973	3172.00
66.3145	3375.00
66.3316	3316.00
66.3488	3357.00
66.3659	3358.00
66.3831	3000.00
66.4002	2874.00
66.4174	2811.00
66.4345	2562.00
66.4517	2432.00
66.4688	2224.00
66.486	2044.00
66.5031	1981.00
66.5203	1886.00
66.5374	1829.00
66.5546	1931.00
66.5717	1817.00
66.5889	1888.00
66.606	1788.00
66.6232	1787.00
66.6403	1868.00
66.6575	1806.00
66.6746	1924.00
66.6918	1854.00
66.7089	1814.00
66.7261	1865.00
66.7432	1988.00
66.7604	2155.00
66.7775	2292.00
66.7947	2477.00
66.8118	2611.00
66.829	2851.00
66.8461	2841.00
66.8633	2726.00
66.8804	2944.00
66.8976	2824.00
66.9147	2793.00
66.9319	2594.00
66.949	2435.00
66.9661	2318.00
66.9833	2119.00
67.0004	1950.00
67.0176	1922.00
67.0347	1897.00
67.0519	1835.00
67.069	1841.00
67.0862	1819.00
67.1033	1777.00
67.1205	1741.00
67.1376	1789.00
67.1548	1826.00
67.1719	1738.00
67.1891	1762.00
67.2062	1833.00
67.2234	1800.00
67.2405	1786.00
67.2577	1866.00
67.2748	1725.00
67.292	1868.00
67.3091	1811.00
67.3263	1920.00
67.3434	1953.00
67.3606	2099.00
67.3777	1963.00
67.3949	2087.00
67.412	2054.00
67.4292	2093.00
67.4463	2082.00
67.4635	2149.00
67.4806	2174.00
67.4978	2240.00
67.5149	2222.00
67.5321	2314.00
67.5492	2433.00
67.5664	2578.00
67.5835	2678.00
67.6007	2825.00
67.6178	2744.00
67.635	2774.00
67.6521	2711.00
67.6693	2712.00
67.6864	2652.00
67.7036	2711.00
67.7207	2723.00
67.7379	2857.00
67.755	2778.00
67.7722	2733.00
67.7893	2773.00
67.8065	2580.00
67.8236	2535.00
67.8408	2427.00
67.8579	2416.00
67.8751	2382.00
67.8922	2260.00
67.9093	2112.00
67.9265	2026.00
67.9436	1972.00
67.9608	1912.00
67.9779	2007.00
67.9951	2041.00
68.0122	2084.00
68.0294	2052.00
68.0465	2083.00
68.0637	2101.00
68.0808	2155.00
68.098	2049.00
68.1151	2126.00
68.1323	2043.00
68.1494	1942.00
68.1666	1934.00
68.1837	1814.00
68.2009	1831.00
68.218	1890.00
68.2352	1768.00
68.2523	1848.00
68.2695	1924.00
68.2866	1895.00
68.3038	1939.00
68.3209	1907.00
68.3381	1975.00
68.3552	1953.00
68.3724	2015.00
68.3895	2016.00
68.4067	2068.00
68.4238	1992.00
68.441	2048.00
68.4581	2055.00
68.4753	2001.00
68.4924	2014.00
68.5096	1878.00
68.5267	2064.00
68.5439	1980.00
68.561	2080.00
68.5782	2062.00
68.5953	1979.00
68.6125	2055.00
68.6296	2067.00
68.6468	1938.00
68.6639	1914.00
68.6811	1983.00
68.6982	1936.00
68.7154	2066.00
68.7325	2039.00
68.7497	2135.00
68.7668	2108.00
68.784	2057.00
68.8011	2200.00
68.8183	2282.00
68.8354	2423.00
68.8525	2649.00
68.8697	2807.00
68.8868	2954.00
68.904	2763.00
68.9211	2939.00
68.9383	2946.00
68.9554	2901.00
68.9726	2760.00
68.9897	2666.00
69.0069	2519.00
69.024	2379.00
69.0412	2303.00
69.0583	2252.00
69.0755	2272.00
69.0926	2186.00
69.1098	2122.00
69.1269	2156.00
69.1441	2003.00
69.1612	1904.00
69.1784	1848.00
69.1955	1786.00
69.2127	1777.00
69.2298	1807.00
69.247	1766.00
69.2641	1808.00
69.2813	1835.00
69.2984	1801.00
69.3156	1759.00
69.3327	1872.00
69.3499	1760.00
69.367	1771.00
69.3842	1772.00
69.4013	1756.00
69.4185	1824.00
69.4356	1918.00
69.4528	2030.00
69.4699	2026.00
69.4871	2125.00
69.5042	2103.00
69.5214	2061.00
69.5385	2082.00
69.5557	2074.00
69.5728	1999.00
69.59	2034.00
69.6071	2014.00
69.6243	2087.00
69.6414	2198.00
69.6586	2233.00
69.6757	2408.00
69.6929	2342.00
69.71	2519.00
69.7272	2477.00
69.7443	2492.00
69.7615	2528.00
69.7786	2434.00
69.7957	2262.00
69.8129	2307.00
69.83	2153.00
69.8472	2170.00
69.8643	2080.00
69.8815	2063.00
69.8986	2042.00
69.9158	1971.00
69.9329	1995.00
69.9501	2032.00
69.9672	1975.00
69.9844	2013.00
70.0015	2046.00
70.0187	1997.00
70.0358	2066.00
70.053	2009.00
70.0701	1975.00
70.0873	1968.00
70.1044	1965.00
70.1216	1902.00
70.1387	1940.00
70.1559	1960.00
70.173	1951.00
70.1902	1936.00
70.2073	2085.00
70.2245	2204.00
70.2416	2347.00
70.2588	2501.00
70.2759	2541.00
70.2931	2487.00
70.3102	2579.00
70.3274	2486.00
70.3445	2536.00
70.3617	2216.00
70.3788	2154.00
70.396	2075.00
70.4131	2014.00
70.4303	1871.00
70.4474	1787.00
70.4646	1757.00
70.4817	1686.00
70.4989	1759.00
70.516	1757.00
70.5332	1711.00
70.5503	1784.00
70.5675	1729.00
70.5846	1758.00
70.6018	1786.00
70.6189	1817.00
70.6361	1858.00
70.6532	1941.00
70.6704	1961.00
70.6875	2022.00
70.7047	2151.00
70.7218	2244.00
70.739	2318.00
70.7561	2194.00
70.7732	2216.00
70.7904	2160.00
70.8075	2198.00
70.8247	2302.00
70.8418	2264.00
70.859	2264.00
70.8761	2372.00
70.8933	2192.00
70.9104	2281.00
70.9276	2244.00
70.9447	2284.00
70.9619	2343.00
70.979	2318.00
70.9962	2177.00
71.0133	2300.00
71.0305	2172.00
71.0476	2193.00
71.0648	2190.00
71.0819	1958.00
71.0991	2030.00
71.1162	1951.00
71.1334	1915.00
71.1505	1963.00
71.1677	1932.00
71.1848	1903.00
71.202	1923.00
71.2191	1931.00
71.2363	1946.00
71.2534	1837.00
71.2706	1987.00
71.2877	1942.00
71.3049	1981.00
71.322	1945.00
71.3392	1978.00
71.3563	1924.00
71.3735	1916.00
71.3906	1913.00
71.4078	1845.00
71.4249	1746.00
71.4421	1826.00
71.4592	1730.00
71.4764	1707.00
71.4935	1793.00
71.5107	1703.00
71.5278	1712.00
71.545	1702.00
71.5621	1731.00
71.5793	1792.00
71.5964	1808.00
71.6136	1699.00
71.6307	1757.00
71.6479	1691.00
71.665	1738.00
71.6822	1682.00
71.6993	1761.00
71.7164	1759.00
71.7336	1686.00
71.7507	1745.00
71.7679	1675.00
71.785	1725.00
71.8022	1717.00
71.8193	1693.00
71.8365	1692.00
71.8536	1693.00
71.8708	1719.00
71.8879	1812.00
71.9051	1728.00
71.9222	1795.00
71.9394	1799.00
71.9565	1787.00
71.9737	1859.00
71.9908	1984.00
72.008	1930.00
72.0251	2060.00
72.0423	2090.00
72.0594	2126.00
72.0766	2199.00
72.0937	2230.00
72.1109	2364.00
72.128	2485.00
72.1452	2641.00
72.1623	2615.00
72.1795	2795.00
72.1966	2931.00
72.2138	2829.00
72.2309	2938.00
72.2481	2830.00
72.2652	2758.00
72.2824	2508.00
72.2995	2274.00
72.3167	2112.00
72.3338	2031.00
72.351	1817.00
72.3681	1850.00
72.3853	1811.00
72.4024	1705.00
72.4196	1811.00
72.4367	1652.00
72.4539	1745.00
72.471	1785.00
72.4882	1715.00
72.5053	1729.00
72.5225	1806.00
72.5396	1770.00
72.5568	1843.00
72.5739	1931.00
72.5911	1947.00
72.6082	1939.00
72.6254	1953.00
72.6425	1881.00
72.6596	1833.00
72.6768	1865.00
72.6939	1803.00
72.7111	1764.00
72.7282	1722.00
72.7454	1688.00
72.7625	1663.00
72.7797	1685.00
72.7968	1645.00
72.814	1689.00
72.8311	1621.00
72.8483	1692.00
72.8654	1676.00
72.8826	1673.00
72.8997	1726.00
72.9169	1679.00
72.934	1692.00
72.9512	1764.00
72.9683	1750.00
72.9855	1693.00
73.0026	1694.00
73.0198	1673.00
73.0369	1706.00
73.0541	1635.00
73.0712	1741.00
73.0884	1706.00
73.1055	1634.00
73.1227	1683.00
73.1398	1714.00
73.157	1644.00
73.1741	1752.00
73.1913	1767.00
73.2084	1873.00
73.2256	1821.00
73.2427	1925.00
73.2599	1965.00
73.277	2093.00
73.2942	2404.00
73.3113	2540.00
73.3285	2837.00
73.3456	2829.00
73.3628	2904.00
73.3799	3100.00
73.3971	3050.00
73.4142	3021.00
73.4314	2911.00
73.4485	2814.00
73.4657	2608.00
73.4828	2439.00
73.5	2197.00
73.5171	2064.00
73.5343	1968.00
73.5514	1786.00
73.5686	1720.00
73.5857	1824.00
73.6029	1752.00
73.62	1824.00
73.6371	1820.00
73.6543	1936.00
73.6714	1954.00
73.6886	1986.00
73.7057	2139.00
73.7229	2255.00
73.74	2271.00
73.7572	2458.00
73.7743	2493.00
73.7915	2528.00
73.8086	2524.00
73.8258	2483.00
73.8429	2453.00
73.8601	2450.00
73.8772	2285.00
73.8944	2312.00
73.9115	2137.00
73.9287	2042.00
73.9458	1961.00
73.963	1824.00
73.9801	1821.00
73.9973	1739.00
74.0144	1793.00
74.0316	1736.00
74.0487	1767.00
74.0659	1693.00
74.083	1765.00
74.1002	1593.00
74.1173	1666.00
74.1345	1710.00
74.1516	1657.00
74.1688	1627.00
74.1859	1701.00
74.2031	1658.00
74.2202	1708.00
74.2374	1689.00
74.2545	1758.00
74.2717	1668.00
74.2888	1702.00
74.306	1650.00
74.3231	1643.00
74.3403	1713.00
74.3574	1627.00
74.3746	1678.00
74.3917	1601.00
74.4089	1709.00
74.426	1711.00
74.4432	1636.00
74.4603	1657.00
74.4775	1685.00
74.4946	1681.00
74.5118	1706.00
74.5289	1674.00
74.5461	1685.00
74.5632	1711.00
74.5803	1741.00
74.5975	1683.00
74.6146	1648.00
74.6318	1637.00
74.6489	1709.00
74.6661	1698.00
74.6832	1724.00
74.7004	1755.00
74.7175	1713.00
74.7347	1829.00
74.7518	1760.00
74.769	1753.00
74.7861	1709.00
74.8033	1728.00
74.8204	1738.00
74.8376	1796.00
74.8547	1819.00
74.8719	1793.00
74.889	1741.00
74.9062	1861.00
74.9233	1836.00
74.9405	1920.00
74.9576	1933.00
74.9748	2049.00
74.9919	2146.00
